# Light Curve Count Rate
# Time (sec) 	 Rate (c/s)
0 -nan
0.2 1.38732e+48
0.4 1.97654e+48
0.6 2.35262e+48
0.8 2.56941e+48
1 2.69046e+48
1.2 2.7582e+48
1.4 2.79679e+48
1.6 2.81935e+48
1.8 2.83291e+48
2 2.84128e+48
2.2 2.84655e+48
2.4 2.84991e+48
2.6 2.85202e+48
2.8 2.85326e+48
3 2.85385e+48
3.2 2.85388e+48
3.4 2.85336e+48
3.6 2.8522e+48
3.8 2.85021e+48
4 2.84706e+48
4.2 2.84215e+48
4.4 2.83445e+48
4.6 2.82226e+48
4.8 2.80265e+48
5 2.77074e+48
5.2 2.71881e+48
5.4 2.63567e+48
5.6 2.50844e+48
5.8 2.32966e+48
6 2.11081e+48
6.2 1.89342e+48
6.4 1.73933e+48
6.6 1.6998e+48
6.8 1.78851e+48
7 1.97497e+48
7.2 2.19971e+48
7.4 2.40597e+48
7.6 2.56441e+48
7.8 2.67285e+48
8 2.74219e+48
8.2 2.7851e+48
8.4 2.81145e+48
8.6 2.82769e+48
8.8 2.83785e+48
9 2.8443e+48
9.2 3.13343e+48
9.4 3.13628e+48
9.6 2.8527e+48
9.8 2.8536e+48
10 3.13927e+48
10.2 3.13894e+48
10.4 3.13799e+48
10.6 2.85122e+48
10.8 2.84864e+48
11 2.84458e+48
11.2 2.83815e+48
11.4 2.8279e+48
11.6 2.81107e+48
11.8 2.7827e+48
12 2.73349e+48
12.2 2.64608e+48
12.4 2.48872e+48
12.6 2.20791e+48
12.8 0
