# Light Curve Count Rate
# Time (sec) 	 Rate (c/s)
0 0
0.2 0
0.4 0
0.6 0
0.8 0
1 0
1.2 0
1.4 0
1.6 8.20638e+44
1.8 1.14995e+45
2 1.46871e+46
2.2 6.56692e+46
2.4 1.32304e+47
2.6 2.08785e+47
2.8 3.3069e+47
3 5.13545e+47
3.2 6.38265e+47
3.4 7.80576e+47
3.6 9.88583e+47
3.8 1.1174e+48
4 1.35115e+48
4.2 1.491e+48
4.4 1.51992e+48
4.6 1.5453e+48
4.8 1.51585e+48
5 1.50066e+48
5.2 1.48882e+48
5.4 1.47951e+48
5.6 1.4643e+48
5.8 1.46179e+48
6 1.46009e+48
6.2 1.43685e+48
6.4 1.41206e+48
6.6 1.38611e+48
6.8 1.35906e+48
7 1.33306e+48
7.2 1.33264e+48
7.4 1.29774e+48
7.6 1.26417e+48
7.8 1.23016e+48
8 1.19651e+48
8.2 1.16508e+48
8.4 1.13249e+48
8.6 1.10203e+48
8.8 1.0801e+48
9 1.0513e+48
9.2 1.02118e+48
9.4 9.92148e+47
9.6 9.64062e+47
9.8 9.38679e+47
10 9.20867e+47
10.2 8.93965e+47
10.4 8.68625e+47
10.6 8.46014e+47
10.8 8.22696e+47
11 7.99808e+47
11.2 7.77705e+47
11.4 7.56349e+47
11.6 7.35951e+47
11.8 7.16156e+47
12 6.97445e+47
12.2 6.788e+47
12.4 6.61274e+47
12.6 6.44386e+47
12.8 0
