# Light Curve Count Rate
# Time (sec) 	 Rate (c/s)
0 0
0.2 0
0.4 0
0.6 1.05692e+45
0.8 9.1379e+47
1 1.1495e+48
1.2 5.50261e+47
1.4 3.05367e+47
1.6 1.86877e+47
1.8 1.2262e+47
2 8.47736e+46
2.2 6.10406e+46
2.4 4.54062e+46
2.6 3.4689e+46
2.8 2.70974e+46
3 2.15696e+46
3.2 1.74493e+46
3.4 1.43153e+46
3.6 1.18893e+46
3.8 9.98205e+45
4 8.46195e+45
4.2 7.20533e+45
4.4 5.98501e+45
4.6 5.88689e+45
4.8 1.21269e+48
5 2.04278e+49
5.2 7.69642e+49
5.4 1.38617e+50
5.6 1.84142e+50
5.8 2.09404e+50
6 2.16152e+50
6.2 2.06744e+50
6.4 1.84445e+50
6.6 1.5431e+50
6.8 1.23152e+50
7 9.61981e+49
7.2 7.52409e+49
7.4 5.96939e+49
7.6 4.80835e+49
7.8 3.92633e+49
8 3.2461e+49
8.2 2.71339e+49
8.4 2.2912e+49
8.6 1.95203e+49
8.8 1.81911e+49
9 3.96701e+49
9.2 9.17393e+49
9.4 1.39793e+50
9.6 1.75207e+50
9.8 1.9801e+50
10 2.08579e+50
10.2 1.68123e+50
10.4 1.18125e+50
10.6 8.64748e+49
10.8 6.53642e+49
11 5.07417e+49
11.2 4.02603e+49
11.4 3.25332e+49
11.6 2.66993e+49
11.8 2.22043e+49
12 1.86763e+49
12.2 1.58649e+49
12.4 1.35914e+49
12.6 1.17314e+49
12.8 0
