# Light Curve Count Rate
# Time (sec) 	 Rate (c/s)
0 8.30587e+44
0.2 2.41064e+46
0.4 4.08891e+47
0.6 2.25277e+48
0.8 7.40837e+48
1 2.54808e+49
1.2 6.78811e+49
1.4 1.16956e+50
1.6 1.53475e+50
1.8 1.70047e+50
2 1.66022e+50
2.2 1.46357e+50
2.4 1.17964e+50
2.6 8.88942e+49
2.8 6.43336e+49
3 4.62032e+49
3.2 3.39133e+49
3.4 2.62e+49
3.6 2.12836e+49
3.8 1.76369e+49
4 1.49704e+49
4.2 1.285e+49
4.4 1.11407e+49
4.6 1.03422e+49
4.8 1.24014e+49
5 3.42328e+49
5.2 9.45511e+49
5.4 1.60245e+50
5.6 2.08971e+50
5.8 2.3564e+50
6 2.41469e+50
6.2 2.2894e+50
6.4 2.02038e+50
6.6 1.6686e+50
6.8 1.3117e+50
7 1.0095e+50
7.2 7.8354e+49
7.4 6.23274e+49
7.6 5.05263e+49
7.8 4.15189e+49
8 3.45645e+49
8.2 2.90985e+49
8.4 2.47498e+49
8.6 2.13439e+49
8.8 2.06541e+49
9 4.38488e+49
9.2 9.84257e+49
9.4 1.49158e+50
9.6 1.86746e+50
9.8 2.10602e+50
10 2.09732e+50
10.2 1.69215e+50
10.4 1.19171e+50
10.6 8.7478e+49
10.8 6.63184e+49
11 5.16591e+49
11.2 4.11356e+49
11.4 3.33759e+49
11.6 2.75074e+49
11.8 2.29852e+49
12 1.94313e+49
12.2 1.65947e+49
12.4 1.42983e+49
12.6 1.24173e+49
12.8 0
