# Light Curve Count Rate
# Time (sec) 	 Rate (c/s)
0 2.08491e+47
0.2 4.85569e+47
0.4 1.32954e+48
0.6 3.16235e+48
0.8 1.56979e+49
1 7.73706e+49
1.2 1.66185e+50
1.4 2.34727e+50
1.6 2.78668e+50
1.8 3.00116e+50
2 3.00907e+50
2.2 2.83607e+50
2.4 2.50307e+50
2.6 2.07038e+50
2.8 1.62647e+50
3 1.243e+50
3.2 9.54223e+49
3.4 7.54208e+49
3.6 6.00839e+49
3.8 4.93622e+49
4 4.14297e+49
4.2 3.5418e+49
4.4 3.17167e+49
4.6 2.86536e+49
4.8 3.96169e+49
5 1.07249e+50
5.2 1.91987e+50
5.4 2.53281e+50
5.6 2.94668e+50
5.8 3.18784e+50
6 3.26529e+50
6.2 3.20603e+50
6.4 3.02639e+50
6.6 2.74142e+50
6.8 2.38441e+50
7 2.00227e+50
7.2 1.64618e+50
7.4 1.3452e+50
7.6 1.10959e+50
7.8 9.29203e+49
8 7.88072e+49
8.2 6.76699e+49
8.4 5.90235e+49
8.6 5.25126e+49
8.8 5.98218e+49
9 1.199e+50
9.2 1.86119e+50
9.4 2.32784e+50
9.6 2.64646e+50
9.8 2.84602e+50
10 2.83183e+50
10.2 2.31266e+50
10.4 1.67295e+50
10.6 1.26505e+50
10.8 9.93567e+49
11 8.01679e+49
11.2 6.62951e+49
11.4 5.59038e+49
11.6 4.80615e+49
11.8 4.18987e+49
12 3.70694e+49
12.2 3.31419e+49
12.4 2.99667e+49
12.6 2.7328e+49
12.8 0
