# Light Curve Count Rate
# Time (sec) 	 Rate (c/s)
0 -nan
0.2 1.38732e+48
0.4 1.97659e+48
0.6 2.35408e+48
0.8 2.57506e+48
1 2.70579e+48
1.2 2.80055e+48
1.4 2.87282e+48
1.6 2.92289e+48
1.8 2.95541e+48
2 2.97608e+48
2.2 2.98912e+48
2.4 2.99729e+48
2.6 3.00235e+48
2.8 3.00467e+48
3 3.00489e+48
3.2 3.00284e+48
3.4 2.99833e+48
3.6 2.99104e+48
3.8 2.98052e+48
4 2.96648e+48
4.2 2.94879e+48
4.4 2.92908e+48
4.6 2.90582e+48
4.8 2.87562e+48
5 2.83391e+48
5.2 2.77321e+48
5.4 2.68263e+48
5.6 2.54941e+48
5.8 2.36542e+48
6 2.14218e+48
6.2 1.92107e+48
6.4 1.76382e+48
6.6 1.72193e+48
6.8 1.80827e+48
7 1.99268e+48
7.2 2.21564e+48
7.4 2.42076e+48
7.6 2.5778e+48
7.8 2.68502e+48
8 2.75328e+48
8.2 2.79748e+48
8.4 2.83126e+48
8.6 2.86773e+48
8.8 2.91241e+48
9 2.94955e+48
9.2 3.25998e+48
9.4 3.27687e+48
9.6 3.00162e+48
9.8 3.00722e+48
10 3.29461e+48
10.2 3.29399e+48
10.4 3.29129e+48
10.6 3.00075e+48
10.8 2.99259e+48
11 2.9814e+48
11.2 2.96602e+48
11.4 2.94516e+48
11.6 2.91764e+48
11.8 2.87934e+48
12 2.82036e+48
12.2 2.72371e+48
12.4 2.55842e+48
12.6 2.26992e+48
12.8 0
