# Light Curve Count Rate
# Time (sec) 	 Rate (c/s)
0 7.97197e+49
0.1 7.93569e+49
0.2 7.87763e+49
0.3 7.79489e+49
0.4 7.68328e+49
0.5 7.53711e+49
0.6 7.34896e+49
0.7 7.1094e+49
0.8 6.80702e+49
0.9 6.42868e+49
1 5.96063e+49
1.1 5.39103e+49
1.2 4.7146e+49
1.3 3.93979e+49
1.4 3.09736e+49
1.5 2.24622e+49
1.6 1.46807e+49
1.7 8.43811e+48
1.8 4.17899e+48
1.9 1.77029e+48
2 8.85744e+47
2.1 2.75908e+47
2.2 1.28091e+47
2.3 4.85575e+46
2.4 2.40899e+46
2.5 2.09054e+46
2.6 2.2663e+46
2.7 3.76467e+46
2.8 7.81313e+46
2.9 2.78572e+47
3 7.12831e+47
3.1 1.8112e+48
3.2 3.61607e+48
3.3 6.98713e+48
3.4 1.18367e+49
3.5 1.7893e+49
3.6 2.46337e+49
3.7 3.14931e+49
3.8 3.80159e+49
3.9 4.4251e+49
4 5.06652e+49
4.1 5.67999e+49
4.2 6.2381e+49
4.3 6.726e+49
4.4 7.13771e+49
4.5 7.47462e+49
4.6 7.75406e+49
4.7 8.02415e+49
4.8 8.2634e+49
4.9 8.44194e+49
5 8.54245e+49
5.1 8.5531e+49
5.2 8.46385e+49
5.3 8.28201e+49
5.4 8.00243e+49
5.5 7.63432e+49
5.6 7.18322e+49
5.7 6.66197e+49
5.8 6.0618e+49
5.9 5.3838e+49
6 4.63811e+49
6.1 3.84661e+49
6.2 3.05405e+49
6.3 2.31934e+49
6.4 1.71072e+49
6.5 1.26815e+49
6.6 9.94031e+48
6.7 8.55929e+48
6.8 7.60398e+48
6.9 6.99138e+48
7 6.49907e+48
7.1 6.05563e+48
7.2 5.64175e+48
7.3 5.27094e+48
7.4 4.93228e+48
7.5 4.60908e+48
7.6 4.31559e+48
7.7 4.05229e+48
7.8 3.79894e+48
7.9 3.56413e+48
8 3.35105e+48
8.1 3.16522e+48
8.2 3.02004e+48
8.3 3.07719e+48
8.4 3.50819e+48
8.5 4.7348e+48
8.6 6.53298e+48
8.7 9.6037e+48
8.8 1.35504e+49
8.9 1.86675e+49
9 2.56389e+49
9.1 3.33049e+49
9.2 4.08826e+49
9.3 4.78747e+49
9.4 5.40482e+49
9.5 6.04552e+49
9.6 6.77985e+49
9.7 7.54239e+49
9.8 8.24061e+49
9.9 8.80142e+49
10 4.92253e+49
10.1 5.21002e+49
10.2 5.33378e+49
10.3 5.32692e+49
10.4 5.18919e+49
10.5 4.96477e+49
10.6 4.50416e+49
10.7 3.96223e+49
10.8 3.50056e+49
10.9 3.11066e+49
11 2.77635e+49
11.1 2.48863e+49
11.2 2.23989e+49
11.3 2.02396e+49
11.4 1.83351e+49
11.5 1.66941e+49
11.6 1.52199e+49
11.7 1.39224e+49
11.8 1.27836e+49
11.9 1.17519e+49
12 1.08297e+49
12.1 1.00157e+49
12.2 9.2743e+48
12.3 8.60348e+48
12.4 7.99722e+48
12.5 7.45415e+48
12.6 6.95648e+48
12.7 6.50022e+48
12.8 6.08389e+48
12.9 5.70296e+48
13 5.35831e+48
13.1 5.03906e+48
13.2 4.74349e+48
13.3 4.47111e+48
13.4 4.21955e+48
13.5 3.98692e+48
13.6 3.77319e+48
13.7 3.57513e+48
13.8 3.38906e+48
13.9 3.21611e+48
14 3.05481e+48
14.1 2.90447e+48
14.2 2.76394e+48
14.3 2.63256e+48
14.4 2.5107e+48
14.5 2.39632e+48
14.6 2.28811e+48
14.7 2.18629e+48
14.8 2.09073e+48
14.9 0
