# Spectrum Count Rate
# Energy bin (keV) 	 Rate (c/s) 	 Uncertainty (c/s)
10.2721 7.85567e+48 0
10.831 7.31375e+48 0
11.4203 6.81073e+48 0
12.0417 6.34377e+48 0
12.6969 5.91025e+48 0
13.3878 5.50771e+48 0
14.1162 5.13389e+48 0
14.8843 4.78669e+48 0
15.6942 4.46415e+48 0
16.5482 4.16446e+48 0
17.4486 3.88595e+48 0
18.398 3.62706e+48 0
19.3991 3.38634e+48 0
20.4546 3.16244e+48 0
21.5676 2.95413e+48 0
22.7411 2.76024e+48 0
23.9785 2.57971e+48 0
25.2832 2.41154e+48 0
26.6589 2.25481e+48 0
28.1095 2.10866e+48 0
29.639 1.97232e+48 0
31.2517 1.84503e+48 0
32.9522 1.72613e+48 0
34.7452 1.61499e+48 0
36.6357 1.51103e+48 0
38.6291 1.41372e+48 0
40.731 1.32256e+48 0
42.9473 1.2371e+48 0
45.2841 1.15691e+48 0
47.7481 1.08163e+48 0
50.3462 1.01088e+48 0
53.0856 9.44358e+47 0
55.9741 8.81758e+47 0
59.0197 8.22813e+47 0
62.2311 7.67277e+47 0
65.6172 7.14928e+47 0
69.1876 6.65562e+47 0
72.9522 6.18996e+47 0
76.9217 5.75066e+47 0
81.1071 5.33623e+47 0
85.5203 4.94532e+47 0
90.1737 4.57671e+47 0
95.0802 4.22933e+47 0
100.254 3.90217e+47 0
105.709 3.59433e+47 0
111.46 3.305e+47 0
117.525 3.03342e+47 0
123.92 2.77885e+47 0
130.663 2.54065e+47 0
137.772 2.31815e+47 0
145.269 2.11074e+47 0
153.173 1.9178e+47 0
161.508 1.73873e+47 0
170.296 1.57294e+47 0
179.562 1.41981e+47 0
189.332 1.27876e+47 0
199.634 1.14918e+47 0
210.496 1.03047e+47 0
221.95 9.22042e+46 0
234.027 8.23292e+46 0
246.76 7.33634e+46 0
260.187 6.52484e+46 0
274.344 5.79269e+46 0
289.272 5.13428e+46 0
305.012 4.54411e+46 0
321.608 4.01683e+46 0
339.107 3.5473e+46 0
357.559 3.13051e+46 0
377.014 2.76172e+46 0
397.528 2.43635e+46 0
419.159 2.1501e+46 0
441.966 1.8989e+46 0
466.014 1.67893e+46 0
491.371 1.48664e+46 0
518.107 1.31875e+46 0
546.298 1.17223e+46 0
576.023 1.04434e+46 0
607.366 9.32605e+45 0
640.414 8.34805e+45 0
675.26 7.48984e+45 0
712.002 6.7343e+45 0
750.744 6.06663e+45 0
791.593 5.4742e+45 0
834.665 4.94633e+45 0
880.081 4.47409e+45 0
927.968 4.05005e+45 0
978.46 3.66805e+45 0
1031.7 3.32301e+45 0
1087.84 3.01071e+45 0
1147.03 2.72761e+45 0
1209.44 2.47072e+45 0
1275.25 2.23747e+45 0
1344.64 2.02561e+45 0
1417.8 1.83319e+45 0
1494.95 1.65843e+45 0
1576.29 1.49975e+45 0
1662.06 1.35572e+45 0
1752.49 1.22504e+45 0
1847.85 1.10651e+45 0
1948.4 9.99051e+44 0
2054.41 9.01664e+44 0
2166.2 8.13446e+44 0
2284.06 7.33568e+44 0
2408.34 6.61273e+44 0
2539.39 5.9587e+44 0
2677.56 5.3673e+44 0
2823.25 4.83275e+44 0
2976.87 4.34981e+44 0
3138.84 3.9137e+44 0
3309.63 3.52004e+44 0
3489.72 3.16487e+44 0
3679.6 2.84456e+44 0
3879.81 2.55581e+44 0
4090.92 2.29564e+44 0
4313.52 2.06131e+44 0
4548.22 1.85035e+44 0
4795.7 1.6605e+44 0
5056.64 1.48972e+44 0
5331.78 1.33615e+44 0
5621.9 1.19812e+44 0
5927.8 1.0741e+44 0
6250.34 9.62712e+43 0
6590.43 8.62696e+43 0
6949.03 7.72924e+43 0
7327.14 6.92373e+43 0
7725.82 6.20119e+43 0
8146.2 5.55324e+43 0
8589.45 4.97233e+43 0
9056.82 4.45167e+43 0
9549.62 3.98512e+43 0
10069.2 3.56713e+43 0
10617.1 3.19273e+43 0
11194.8 2.85742e+43 0
11803.9 2.55718e+43 0
12446.2 2.28837e+43 0
13123.4 2.04773e+43 0
13837.5 1.83234e+43 0
14590.4 1.63955e+43 0
15384.3 1.46701e+43 0
16221.4 1.31261e+43 0
17104.1 1.17444e+43 0
18034.7 1.05081e+43 0
19016 9.40178e+42 0
20050.7 8.41192e+42 0
21141.7 7.52624e+42 0
22292.1 6.73378e+42 0
23505 6.02476e+42 0
24784 5.39038e+42 0
26132.5 4.82279e+42 0
27554.5 4.31497e+42 0
29053.8 3.86061e+42 0
30634.6 3.4541e+42 0
32301.5 3.09039e+42 0
34059.1 2.76498e+42 0
35912.3 2.47384e+42 0
37866.4 2.21335e+42 0
39926.8 1.98028e+42 0
42099.2 1.77176e+42 0
44390 1.5852e+42 0
46805.3 1.41828e+42 0
49352.1 1.26894e+42 0
52037.4 1.13532e+42 0
54868.8 1.01578e+42 0
57854.3 9.08817e+41 0
61002.3 8.1312e+41 0
64321.6 7.275e+41 0
67821.4 6.50896e+41 0
71511.7 5.82357e+41 0
75402.8 5.21036e+41 0
79505.6 4.66172e+41 0
83831.6 4.17086e+41 0
88393.1 3.73167e+41 0
93202.7 3.33873e+41 0
98274.1 2.98717e+41 0
103621 2.67263e+41 0
109260 2.3912e+41 0
115205 2.13941e+41 0
121473 1.91414e+41 0
128083 1.71259e+41 0
135052 1.53225e+41 0
142400 1.37091e+41 0
150149 1.22656e+41 0
158319 1.0974e+41 0
166933 9.81847e+40 0
176016 8.7846e+40 0
185593 7.8596e+40 0
195692 7.03201e+40 0
206340 6.29155e+40 0
217567 5.62906e+40 0
229405 5.03633e+40 0
241888 4.50601e+40 0
255050 4.03154e+40 0
268927 3.60702e+40 0
283560 3.22721e+40 0
298989 2.88739e+40 0
315258 2.58336e+40 0
332411 2.31134e+40 0
350498 2.06796e+40 0
369570 1.8502e+40 0
389679 1.65538e+40 0
