# Light Curve Count Rate
# Time (sec) 	 Rate (c/s)
0 1.55794e+48
0.05 1.15925e+48
0.1 8.62098e+47
0.15 6.8652e+47
0.2 5.57806e+47
0.25 4.60163e+47
0.3 3.84737e+47
0.35 3.25916e+47
0.4 2.78803e+47
0.45 2.41371e+47
0.5 2.11061e+47
0.55 1.86179e+47
0.6 1.65941e+47
0.65 1.49428e+47
0.7 1.35623e+47
0.75 1.23893e+47
0.8 1.13952e+47
0.85 1.05335e+47
0.9 9.78238e+46
0.95 9.13048e+46
1 8.54867e+46
1.05 8.03298e+46
1.1 7.57427e+46
1.15 7.16037e+46
1.2 6.78927e+46
1.25 6.45077e+46
1.3 6.1434e+46
1.35 5.86296e+46
1.4 5.60496e+46
1.45 5.36881e+46
1.5 5.15014e+46
1.55 4.94818e+46
1.6 4.76071e+46
1.65 4.5862e+46
1.7 4.42382e+46
1.75 4.27219e+46
1.8 4.12997e+46
1.85 3.99756e+46
1.9 3.87196e+46
1.95 3.75399e+46
2 3.64333e+46
2.05 3.53815e+46
2.1 3.43946e+46
2.15 3.34584e+46
2.2 3.25681e+46
2.25 3.17249e+46
2.3 3.09196e+46
2.35 3.01576e+46
2.4 2.94264e+46
2.45 2.87331e+46
2.5 2.80705e+46
2.55 2.74364e+46
2.6 2.68303e+46
2.65 2.62489e+46
2.7 2.56945e+46
2.75 2.5158e+46
2.8 2.46468e+46
2.85 2.41534e+46
2.9 2.36792e+46
2.95 2.32223e+46
3 2.27828e+46
3.05 2.23608e+46
3.1 2.19539e+46
3.15 2.15597e+46
3.2 2.11783e+46
3.25 2.08137e+46
3.3 2.0458e+46
3.35 2.01168e+46
3.4 1.97836e+46
3.45 1.94626e+46
3.5 1.91497e+46
3.55 1.88497e+46
3.6 1.85543e+46
3.65 1.82719e+46
3.7 1.79967e+46
3.75 1.7729e+46
3.8 1.74703e+46
3.85 1.72179e+46
3.9 1.69709e+46
3.95 1.67332e+46
4 1.65008e+46
4.05 1.62754e+46
4.1 1.6055e+46
4.15 1.58393e+46
4.2 1.56299e+46
4.25 1.5427e+46
4.3 1.5228e+46
4.35 1.50348e+46
4.4 1.48464e+46
4.45 1.46615e+46
4.5 1.44818e+46
4.55 1.43064e+46
4.6 1.41333e+46
4.65 1.39657e+46
4.7 1.3802e+46
4.75 1.36402e+46
4.8 1.34835e+46
4.85 1.33304e+46
4.9 1.31803e+46
4.95 1.30335e+46
5 1.28891e+46
5.05 1.27482e+46
5.1 1.26102e+46
5.15 1.24745e+46
5.2 1.23419e+46
5.25 1.22127e+46
5.3 1.20848e+46
5.35 1.19598e+46
5.4 1.18373e+46
5.45 1.17166e+46
5.5 1.15991e+46
5.55 1.14833e+46
5.6 1.13685e+46
5.65 1.12574e+46
5.7 1.11477e+46
5.75 1.104e+46
5.8 1.09341e+46
5.85 1.08301e+46
5.9 1.07279e+46
5.95 1.06273e+46
6 1.05289e+46
6.05 1.04309e+46
6.1 1.03357e+46
6.15 1.02421e+46
6.2 1.01491e+46
6.25 1.00584e+46
6.3 9.96876e+45
6.35 9.88008e+45
6.4 9.79356e+45
6.45 9.70838e+45
6.5 9.6237e+45
6.55 9.54064e+45
6.6 9.45921e+45
6.65 9.37858e+45
6.7 9.29947e+45
6.75 9.22117e+45
6.8 9.14363e+45
6.85 9.06784e+45
6.9 8.99312e+45
6.95 8.91876e+45
7 8.84605e+45
7.05 8.77434e+45
7.1 8.70298e+45
7.15 8.63313e+45
7.2 8.56425e+45
7.25 8.49565e+45
7.3 8.42849e+45
7.35 8.36223e+45
7.4 8.29623e+45
7.45 8.23186e+45
7.5 8.16778e+45
7.55 8.10422e+45
7.6 8.04219e+45
7.65 7.9804e+45
7.7 7.91933e+45
7.75 7.85898e+45
7.8 7.79983e+45
7.85 7.74067e+45
7.9 7.68262e+45
7.95 7.62526e+45
8 7.56807e+45
8.05 7.5122e+45
8.1 7.45673e+45
8.15 7.40143e+45
8.2 7.34716e+45
8.25 7.29349e+45
8.3 7.24017e+45
8.35 7.18763e+45
8.4 7.13586e+45
8.45 7.08381e+45
8.5 7.03311e+45
8.55 6.98253e+45
8.6 6.93247e+45
8.65 6.88292e+45
8.7 6.83427e+45
8.75 6.78571e+45
8.8 6.73782e+45
8.85 6.69061e+45
8.9 6.64311e+45
8.95 6.59681e+45
9 6.55097e+45
9.05 6.50484e+45
9.1 6.45986e+45
9.15 6.41532e+45
9.2 6.3705e+45
9.25 6.3268e+45
9.3 6.28352e+45
9.35 6.23995e+45
9.4 6.19745e+45
9.45 6.15537e+45
9.5 6.11299e+45
9.55 6.07167e+45
9.6 6.03072e+45
9.65 5.98949e+45
9.7 5.94928e+45
9.75 5.90943e+45
9.8 5.86962e+45
9.85 5.83015e+45
9.9 5.79136e+45
9.95 0
