# Light Curve Count Rate
# Time (sec) 	 Rate (c/s)
0 -nan
0.1 8.00107e+49
0.2 8.09662e+49
0.3 8.1541e+49
0.4 8.18519e+49
0.5 8.19675e+49
0.6 8.1929e+49
0.7 8.17612e+49
0.8 8.14791e+49
0.9 8.10905e+49
1 8.05988e+49
1.1 8.00041e+49
1.2 7.9304e+49
1.3 7.84942e+49
1.4 7.75683e+49
1.5 7.65194e+49
1.6 7.53389e+49
1.7 7.40177e+49
1.8 7.25461e+49
1.9 7.09136e+49
2 6.91104e+49
2.1 6.71268e+49
2.2 6.49535e+49
2.3 6.25831e+49
2.4 6.00105e+49
2.5 5.72326e+49
2.6 5.42513e+49
2.7 5.10719e+49
2.8 4.77061e+49
2.9 4.41728e+49
3 4.04974e+49
3.1 3.67148e+49
3.2 3.28675e+49
3.3 2.90068e+49
3.4 2.51914e+49
3.5 2.14849e+49
3.6 1.79537e+49
3.7 1.46626e+49
3.8 1.167e+49
3.9 9.02369e+48
4 6.75528e+48
4.1 4.87753e+48
4.2 3.3826e+48
4.3 2.24289e+48
4.4 1.78793e+48
4.5 1.07438e+48
4.6 6.07756e+47
4.7 2.84577e+47
4.8 1.40686e+47
4.9 8.44638e+46
5 3.56337e+46
5.1 1.79391e+46
5.2 5.86107e+45
5.3 2.48805e+45
5.4 9.11614e+44
5.5 2.29963e+44
5.6 6.87074e+43
5.7 1.85281e+43
5.8 4.57475e+42
5.9 1.47185e+42
6 2.84922e+41
6.1 7.61165e+40
6.2 1.15419e+40
6.3 2.54233e+39
6.4 5.08928e+38
6.5 9.24892e+37
6.6 1.51441e+37
6.7 2.22307e+36
6.8 5.8042e+35
6.9 6.99913e+34
7 1.59247e+34
7.1 3.41656e+33
7.2 6.89607e+32
7.3 6.25604e+48
7.4 4.12856e+49
7.5 6.62901e+49
7.6 7.62297e+49
7.7 8.03459e+49
7.8 8.21677e+49
7.9 8.29128e+49
8 8.30416e+49
8.1 8.27394e+49
8.2 8.20685e+49
8.3 8.10367e+49
8.4 7.96126e+49
8.5 7.77369e+49
8.6 7.53345e+49
8.7 7.23089e+49
8.8 6.85597e+49
8.9 6.3987e+49
9 5.85115e+49
9.1 5.21089e+49
9.2 4.48408e+49
9.3 3.69064e+49
9.4 2.86722e+49
9.5 2.06719e+49
9.6 1.35372e+49
9.7 7.83805e+48
9.8 3.88196e+48
9.9 1.57996e+48
10 7.02154e+47
10.1 1.62892e+47
10.2 4.41393e+46
10.3 8.59459e+45
10.4 1.22495e+45
10.5 1.21143e+44
10.6 1.61918e+43
10.7 1.65427e+42
10.8 1.23986e+41
10.9 1.82483e+40
11 7.51549e+38
11.1 7.11342e+37
11.2 5.49567e+36
11.3 3.40764e+35
11.4 7.76985e+34
11.5 3.34635e+33
11.6 6.28901e+32
11.7 1.10239e+32
11.8 2.71787e+30
11.9 3.80043e+29
12 4.89878e+28
12.1 5.80269e+27
12.2 6.29506e+26
12.3 6.23335e+25
12.4 6.23341e+25
12.5 5.61372e+24
12.6 4.58135e+23
12.7 3.37508e+22
12.8 3.37508e+22
12.9 2.23576e+21
13 1.32624e+20
13.1 1.32625e+20
13.2 7.01544e+18
13.3 7.01544e+18
13.4 3.29479e+17
13.5 1.36757e+16
13.6 1.36759e+16
13.7 4.99347e+14
13.8 4.99347e+14
13.9 4.99352e+14
14 1.59615e+13
14.1 1.59617e+13
14.2 4.44407e+11
14.3 4.44407e+11
14.4 1.07219e+10
14.5 1.07218e+10
14.6 1.07219e+10
14.7 2.22945e+08
14.8 2.22945e+08
14.9 2.22947e+08
15 3.97338e+06
15.1 3.97342e+06
15.2 3.97338e+06
15.3 60345.7
15.4 60346.3
15.5 60345.7
15.6 776.402
15.7 776.395
15.8 776.395
15.9 8.41019
16 8.41011
16.1 8.41011
16.2 8.41011
16.3 0.0762146
16.4 0.0762131
16.5 0.0762131
16.6 0.0762131
16.7 0.000574022
16.8 0.000574033
16.9 0.000574022
17 0.000574022
17.1 3.5689e-06
17.2 3.5689e-06
17.3 3.56896e-06
17.4 3.5689e-06
17.5 1.81887e-08
17.6 1.81887e-08
17.7 1.81887e-08
17.8 1.8189e-08
17.9 1.81887e-08
18 7.54388e-11
18.1 7.54388e-11
18.2 7.54388e-11
18.3 7.54402e-11
18.4 7.54388e-11
18.5 2.52724e-13
18.6 2.52724e-13
18.7 2.52724e-13
18.8 2.52729e-13
18.9 2.52724e-13
19 2.52724e-13
19.1 6.78565e-16
19.2 6.78565e-16
19.3 6.78578e-16
19.4 6.78565e-16
19.5 6.78565e-16
19.6 6.78565e-16
19.7 1.44872e-18
19.8 1.44875e-18
19.9 1.44872e-18
20 1.44872e-18
20.1 1.44872e-18
20.2 1.44872e-18
20.3 2.43906e-21
20.4 2.43901e-21
20.5 2.43901e-21
20.6 2.43901e-21
20.7 2.43901e-21
20.8 2.43906e-21
20.9 2.43901e-21
21 3.21054e-24
21.1 3.21054e-24
21.2 3.21054e-24
21.3 3.2106e-24
21.4 3.21054e-24
21.5 3.21054e-24
21.6 3.21054e-24
21.7 3.27542e-27
21.8 3.27548e-27
21.9 3.27542e-27
22 3.27542e-27
22.1 3.27542e-27
22.2 3.27542e-27
22.3 3.27548e-27
22.4 3.27542e-27
22.5 2.56647e-30
22.6 2.56647e-30
22.7 2.56647e-30
22.8 2.56652e-30
22.9 2.56647e-30
23 2.56647e-30
23.1 2.56647e-30
23.2 2.56647e-30
23.3 1.53006e-33
23.4 1.53003e-33
23.5 1.53003e-33
23.6 1.53003e-33
23.7 1.53003e-33
23.8 1.53006e-33
23.9 1.53003e-33
24 1.53003e-33
24.1 1.53003e-33
24.2 6.87314e-37
24.3 6.87327e-37
24.4 6.87314e-37
24.5 6.87314e-37
24.6 6.87314e-37
24.7 6.87314e-37
24.8 6.87327e-37
24.9 6.87314e-37
25 6.87314e-37
25.1 6.87314e-37
25.2 2.30343e-40
25.3 2.30347e-40
25.4 2.30343e-40
25.5 2.30343e-40
25.6 2.30343e-40
25.7 2.30343e-40
25.8 2.30347e-40
25.9 2.30343e-40
26 2.30343e-40
26.1 2.30343e-40
26.2 5.69985e-44
26.3 5.69996e-44
26.4 5.69985e-44
26.5 5.69985e-44
26.6 5.69985e-44
26.7 5.69985e-44
26.8 5.69996e-44
26.9 5.69985e-44
27 5.69985e-44
27.1 5.69985e-44
27.2 5.69985e-44
27.3 1.03043e-47
27.4 1.03041e-47
27.5 1.03041e-47
27.6 1.03041e-47
27.7 1.03041e-47
27.8 1.03043e-47
27.9 1.03041e-47
28 1.03041e-47
28.1 1.03041e-47
28.2 1.03041e-47
28.3 1.03043e-47
28.4 1.03041e-47
28.5 1.34601e-51
28.6 1.34601e-51
28.7 1.34601e-51
28.8 1.34603e-51
28.9 1.34601e-51
29 1.34601e-51
29.1 1.34601e-51
29.2 1.34601e-51
29.3 1.34603e-51
29.4 1.34601e-51
29.5 1.34601e-51
29.6 1.34601e-51
29.7 1.25618e-55
29.8 1.25621e-55
29.9 0
