# Light Curve Count Rate
# Time (sec) 	 Rate (c/s)
0 7.97197e+49
0.1 7.93569e+49
0.2 7.87763e+49
0.3 7.79489e+49
0.4 7.68328e+49
0.5 7.53711e+49
0.6 7.34895e+49
0.7 7.10939e+49
0.8 6.80702e+49
0.9 6.42867e+49
1 5.96062e+49
1.1 5.39102e+49
1.2 4.71459e+49
1.3 3.93977e+49
1.4 3.09733e+49
1.5 2.24619e+49
1.6 1.46804e+49
1.7 8.43763e+48
1.8 4.17857e+48
1.9 1.76985e+48
2 8.85292e+47
2.1 2.75369e+47
2.2 1.27505e+47
2.3 4.80105e+46
2.4 2.3407e+46
2.5 2.01583e+46
2.6 2.192e+46
2.7 3.66315e+46
2.8 7.71842e+46
2.9 2.77492e+47
3 7.11644e+47
3.1 1.81008e+48
3.2 3.61482e+48
3.3 6.98573e+48
3.4 1.18354e+49
3.5 1.78915e+49
3.6 2.46322e+49
3.7 3.14916e+49
3.8 3.80144e+49
3.9 4.3913e+49
4 4.90513e+49
4.1 5.34016e+49
4.2 5.70012e+49
4.3 5.99157e+49
4.4 6.22199e+49
4.5 6.3984e+49
4.6 6.5267e+49
4.7 6.61155e+49
4.8 6.65601e+49
4.9 6.66176e+49
5 6.62903e+49
5.1 6.55655e+49
5.2 6.44168e+49
5.3 6.28011e+49
5.4 6.06619e+49
5.5 5.79292e+49
5.6 5.45237e+49
5.7 5.03684e+49
5.8 4.54033e+49
5.9 3.96193e+49
6 3.31021e+49
6.1 2.60879e+49
6.2 1.90071e+49
6.3 1.24661e+49
6.4 7.11499e+48
6.5 3.39203e+48
6.6 1.29038e+48
6.7 5.29744e+47
6.8 1.11802e+47
6.9 2.86787e+46
7 5.72934e+45
7.1 9.82341e+44
7.2 1.55026e+44
7.3 4.11051e+43
7.4 7.61471e+42
7.5 2.03752e+42
7.6 1.21641e+42
7.7 1.18332e+42
7.8 5.08095e+42
7.9 5.12041e+43
8 6.81841e+44
8.1 7.99456e+45
8.2 4.62345e+46
8.3 2.78239e+47
8.4 8.65214e+47
8.5 2.23428e+48
8.6 4.17106e+48
8.7 7.36757e+48
8.8 1.14355e+49
8.9 1.60491e+49
9 2.08378e+49
9.1 2.5481e+49
9.2 2.97452e+49
9.3 3.34874e+49
9.4 3.66337e+49
9.5 3.91558e+49
9.6 4.10541e+49
9.7 4.23377e+49
9.8 4.302e+49
9.9 4.31092e+49
10 0
10.1 0
10.2 0
10.3 0
10.4 0
10.5 0
10.6 0
10.7 0
10.8 0
10.9 0
11 0
11.1 0
11.2 0
11.3 0
11.4 0
11.5 0
11.6 0
11.7 0
11.8 0
11.9 0
12 0
12.1 0
12.2 0
12.3 0
12.4 0
12.5 0
12.6 0
12.7 0
12.8 0
12.9 0
13 0
13.1 0
13.2 0
13.3 0
13.4 0
13.5 0
13.6 0
13.7 0
13.8 0
13.9 0
14 0
14.1 0
14.2 0
14.3 0
14.4 0
14.5 0
14.6 0
14.7 0
14.8 0
14.9 0
