# Light Curve Count Rate
# Time (sec) 	 Rate (c/s)
0.1 0
0.2 0
0.3 0
0.4 0
0.5 0
0.6 0
0.7 0
0.8 0
0.9 1.55202e+46
1 4.46338e+46
1.1 6.37191e+46
1.2 8.43885e+46
1.3 1.13148e+47
1.4 1.41919e+47
1.5 1.66056e+47
1.6 1.82492e+47
1.7 1.90559e+47
1.8 1.89345e+47
1.9 1.81387e+47
2 1.71578e+47
2.1 1.60508e+47
2.2 1.47218e+47
2.3 1.32772e+47
2.4 1.18806e+47
2.5 1.06763e+47
2.6 9.60979e+46
2.7 8.65077e+46
2.8 7.77092e+46
2.9 6.98365e+46
3 6.25711e+46
3.1 5.60801e+46
3.2 5.02617e+46
3.3 4.5064e+46
3.4 4.05355e+46
3.5 3.6444e+46
3.6 3.28478e+46
3.7 2.96855e+46
3.8 2.68928e+46
3.9 2.44174e+46
4 2.2216e+46
4.1 2.02535e+46
4.2 1.85003e+46
4.3 1.69737e+46
4.4 1.55724e+46
4.5 1.43269e+46
4.6 1.32156e+46
4.7 1.22037e+46
4.8 1.13003e+46
4.9 1.04836e+46
5 9.7271e+45
5.1 9.07167e+45
5.2 8.44517e+45
5.3 7.8793e+45
5.4 7.38001e+45
5.5 6.90351e+45
5.6 6.46729e+45
5.7 6.07789e+45
5.8 5.71559e+45
5.9 5.37605e+45
6 5.06295e+45
6.1 4.77376e+45
6.2 4.50626e+45
6.3 4.25838e+45
6.4 4.02842e+45
6.5 3.81476e+45
6.6 3.61597e+45
6.7 3.43081e+45
6.8 3.25807e+45
6.9 3.09677e+45
7 2.94597e+45
7.1 2.80481e+45
7.2 2.67257e+45
7.3 2.5485e+45
7.4 2.43201e+45
7.5 2.32253e+45
7.6 2.21953e+45
7.7 2.12255e+45
7.8 2.03113e+45
7.9 1.9449e+45
8 1.8635e+45
8.1 1.78658e+45
8.2 1.71383e+45
8.3 1.645e+45
8.4 1.57981e+45
8.5 1.518e+45
8.6 1.45941e+45
8.7 1.40377e+45
8.8 1.35095e+45
8.9 1.30074e+45
9 1.25298e+45
9.1 1.20755e+45
9.2 1.16427e+45
9.3 1.12306e+45
9.4 1.08377e+45
9.5 1.04628e+45
9.6 1.01051e+45
9.7 9.76347e+44
9.8 9.43722e+44
9.9 9.12527e+44
10 8.82685e+44
10.1 8.54147e+44
10.2 8.26811e+44
10.3 8.00646e+44
10.4 7.75567e+44
10.5 7.51518e+44
10.6 7.28468e+44
10.7 7.06338e+44
10.8 6.85109e+44
10.9 6.64717e+44
11 6.4512e+44
11.1 6.26299e+44
11.2 6.08192e+44
11.3 5.90787e+44
11.4 5.74036e+44
11.5 5.57906e+44
11.6 5.42387e+44
11.7 5.27428e+44
11.8 5.13024e+44
11.9 4.99135e+44
12 4.85739e+44
12.1 4.72827e+44
12.2 4.60361e+44
12.3 4.48337e+44
12.4 4.36725e+44
12.5 4.25506e+44
12.6 4.14677e+44
12.7 4.04204e+44
12.8 3.94089e+44
12.9 3.84305e+44
13 3.74839e+44
13.1 3.65688e+44
13.2 3.56826e+44
13.3 3.48255e+44
13.4 3.39953e+44
13.5 3.3191e+44
13.6 3.24125e+44
13.7 3.16575e+44
13.8 3.09264e+44
13.9 3.02174e+44
14 2.95296e+44
14.1 2.88631e+44
14.2 2.8216e+44
14.3 2.75886e+44
14.4 2.69794e+44
14.5 2.63877e+44
14.6 2.58138e+44
14.7 2.52559e+44
14.8 2.47144e+44
14.9 0
