# Light Curve Count Rate
# Time (sec) 	 Rate (c/s)
0 2.39266e+48
0.1 6.19544e+48
0.2 1.21321e+49
0.3 2.71933e+49
0.4 4.56974e+49
0.5 7.07614e+49
0.6 9.35864e+49
0.7 1.12569e+50
0.8 1.53452e+50
0.9 2.48365e+50
1 3.3688e+50
1.1 3.77354e+50
1.2 3.88941e+50
1.3 3.91627e+50
1.4 3.88625e+50
1.5 3.85005e+50
1.6 3.81587e+50
1.7 3.79933e+50
1.8 3.78132e+50
1.9 3.76951e+50
2 3.75829e+50
2.1 3.76054e+50
2.2 3.74331e+50
2.3 3.72547e+50
2.4 3.67788e+50
2.5 3.60278e+50
2.6 3.48795e+50
2.7 3.33106e+50
2.8 3.11828e+50
2.9 2.87364e+50
3 2.57102e+50
3.1 2.23381e+50
3.2 1.8616e+50
3.3 1.46378e+50
3.4 1.05946e+50
3.5 6.98503e+49
3.6 4.76641e+49
3.7 3.31443e+49
3.8 2.59517e+49
3.9 2.12731e+49
4 1.76312e+49
4.1 1.48093e+49
4.2 1.30405e+49
4.3 1.54431e+49
4.4 2.43381e+49
4.5 4.0802e+49
4.6 6.42871e+49
4.7 8.83727e+49
4.8 1.36627e+50
4.9 2.45452e+50
5 3.37763e+50
5.1 3.7403e+50
5.2 3.809e+50
5.3 3.77031e+50
5.4 3.7157e+50
5.5 3.65529e+50
5.6 3.59912e+50
5.7 3.55298e+50
5.8 3.52346e+50
5.9 3.50659e+50
6 3.48304e+50
6.1 3.48558e+50
6.2 3.4861e+50
6.3 3.46015e+50
6.4 3.43508e+50
6.5 3.41674e+50
6.6 3.35449e+50
6.7 3.28391e+50
6.8 3.20037e+50
6.9 3.03193e+50
7 2.83062e+50
7.1 2.52934e+50
7.2 2.17622e+50
7.3 1.77759e+50
7.4 1.40294e+50
7.5 1.17212e+50
7.6 9.84819e+49
7.7 8.27298e+49
7.8 6.96865e+49
7.9 5.89974e+49
8 4.97421e+49
8.1 4.39489e+49
8.2 3.75032e+49
8.3 3.2152e+49
8.4 2.96262e+49
8.5 3.39493e+49
8.6 4.9325e+49
8.7 6.70159e+49
8.8 1.05007e+50
8.9 2.33544e+50
9 3.25664e+50
9.1 3.59238e+50
9.2 3.65141e+50
9.3 3.6117e+50
9.4 3.55815e+50
9.5 3.50342e+50
9.6 3.44828e+50
9.7 3.40154e+50
9.8 3.38055e+50
9.9 3.37058e+50
10 1.95652e+50
10.1 1.92804e+50
10.2 1.49979e+50
10.3 1.03352e+50
10.4 7.46489e+49
10.5 5.51318e+49
10.6 4.35602e+49
10.7 3.33064e+49
10.8 2.63281e+49
10.9 2.19923e+49
11 1.78302e+49
11.1 1.55714e+49
11.2 1.44652e+49
11.3 1.28092e+49
11.4 1.11263e+49
11.5 9.80282e+48
11.6 8.72277e+48
11.7 9.47246e+48
11.8 9.12477e+48
11.9 8.32261e+48
12 7.63199e+48
12.1 7.03161e+48
12.2 7.61619e+48
12.3 7.7119e+48
12.4 7.24658e+48
12.5 7.00662e+48
12.6 6.58538e+48
12.7 7.51765e+48
12.8 7.4652e+48
12.9 7.06034e+48
13 6.68587e+48
13.1 6.61996e+48
13.2 7.67999e+48
13.3 7.30791e+48
13.4 6.95914e+48
13.5 6.64134e+48
13.6 7.68329e+48
13.7 7.68708e+48
13.8 7.34217e+48
13.9 7.03036e+48
14 7.67673e+48
14.1 9.29157e+48
14.2 9.16363e+48
14.3 8.78633e+48
14.4 8.42922e+48
14.5 9.30027e+48
14.6 9.25108e+48
14.7 8.88746e+48
14.8 8.54081e+48
14.9 0
