# Light Curve Count Rate
# Time (sec) 	 Rate (c/s)
0 0
0.1 0
0.2 0
0.3 0
0.4 0
0.5 0
0.6 0
0.7 0
0.8 1.45796e+46
0.9 1.15109e+47
1 3.50909e+47
1.1 6.63946e+47
1.2 9.60392e+47
1.3 1.1935e+48
1.4 1.35492e+48
1.5 1.45278e+48
1.6 1.49833e+48
1.7 1.50123e+48
1.8 1.46869e+48
1.9 1.40598e+48
2 1.31755e+48
2.1 1.228e+48
2.2 1.13218e+48
2.3 1.05114e+48
2.4 9.71363e+47
2.5 8.90524e+47
2.6 8.00747e+47
2.7 7.14222e+47
2.8 6.31945e+47
2.9 5.55942e+47
3 4.87357e+47
3.1 4.27372e+47
3.2 3.76147e+47
3.3 3.32827e+47
3.4 2.96311e+47
3.5 2.63621e+47
3.6 2.37005e+47
3.7 2.12369e+47
3.8 1.91979e+47
3.9 1.73577e+47
4 1.57253e+47
4.1 1.43623e+47
4.2 1.30944e+47
4.3 1.19698e+47
4.4 1.09842e+47
4.5 1.01233e+47
4.6 9.32336e+46
4.7 8.60581e+46
4.8 7.9603e+46
4.9 7.37276e+46
5 6.8514e+46
5.1 6.35745e+46
5.2 5.89967e+46
5.3 5.5063e+46
5.4 5.11506e+46
5.5 4.74725e+46
5.6 4.45029e+46
5.7 4.13849e+46
5.8 3.89355e+46
5.9 3.61377e+46
6 3.3491e+46
6.1 3.15886e+46
6.2 2.92593e+46
6.3 2.76562e+46
6.4 2.55969e+46
6.5 2.42422e+46
6.6 2.24141e+46
6.7 2.12668e+46
6.8 1.96378e+46
6.9 1.872e+46
7 1.72609e+46
7.1 1.64314e+46
7.2 1.51228e+46
7.3 1.44175e+46
7.4 1.37554e+46
7.5 1.26409e+46
7.6 1.20768e+46
7.7 1.10705e+46
7.8 1.05899e+46
7.9 9.68e+45
8 9.27094e+45
8.1 8.44762e+45
8.2 8.09984e+45
8.3 7.77091e+45
8.4 7.05978e+45
8.5 6.78017e+45
8.6 6.1367e+45
8.7 5.91939e+45
8.8 5.7073e+45
8.9 5.14988e+45
9 4.95799e+45
9.1 4.45675e+45
9.2 4.29444e+45
9.3 4.13992e+45
9.4 3.71006e+45
9.5 3.57949e+45
9.6 3.45498e+45
9.7 3.08954e+45
9.8 2.98435e+45
9.9 2.88388e+45
10 2.57783e+45
10.1 2.49283e+45
10.2 2.20852e+45
10.3 2.13717e+45
10.4 2.06886e+45
10.5 2.00343e+45
10.6 1.74873e+45
10.7 1.69449e+45
10.8 1.64247e+45
10.9 1.40905e+45
11 1.3666e+45
11.1 1.32584e+45
11.2 1.11535e+45
11.3 1.08616e+45
11.4 1.08409e+45
11.5 1.05312e+45
11.6 8.7195e+44
11.7 8.47498e+44
11.8 8.23954e+44
11.9 6.67749e+44
12 6.49536e+44
12.1 6.31981e+44
12.2 6.15051e+44
12.3 4.88273e+44
12.4 4.7543e+44
12.5 4.63034e+44
12.6 4.51067e+44
12.7 4.39509e+44
12.8 3.43087e+44
12.9 3.34455e+44
13 3.2611e+44
13.1 3.18042e+44
13.2 3.10238e+44
13.3 2.40125e+44
13.4 2.3434e+44
13.5 2.28741e+44
13.6 2.23319e+44
13.7 2.18068e+44
13.8 1.69775e+44
13.9 1.65857e+44
14 1.6206e+44
14.1 1.58378e+44
14.2 1.54807e+44
14.3 1.51342e+44
14.4 1.19952e+44
14.5 1.17318e+44
14.6 1.14761e+44
14.7 1.3655e+44
14.8 1.51904e+44
14.9 1.48923e+44
15 1.46019e+44
15.1 1.27258e+44
15.2 1.24845e+44
15.3 1.22496e+44
15.4 1.20206e+44
15.5 1.17973e+44
15.6 1.15799e+44
15.7 1.13677e+44
15.8 1.02573e+44
15.9 1.0074e+44
16 9.89498e+43
16.1 9.72056e+43
16.2 9.54995e+43
16.3 9.38366e+43
16.4 9.22128e+43
16.5 9.06248e+43
16.6 8.90768e+43
16.7 8.05661e+43
16.8 7.92226e+43
16.9 7.79094e+43
17 7.66236e+43
17.1 7.53693e+43
17.2 7.41401e+43
17.3 7.294e+43
17.4 7.17662e+43
17.5 7.06159e+43
17.6 6.94934e+43
17.7 6.31846e+43
17.8 6.22034e+43
17.9 6.12427e+43
18 6.03001e+43
18.1 5.93797e+43
18.2 5.84758e+43
18.3 5.75923e+43
18.4 5.67269e+43
18.5 5.58772e+43
18.6 5.50471e+43
18.7 1.03778e+44
18.8 1.11153e+44
18.9 1.09786e+44
19 1.04812e+44
19.1 1.03553e+44
19.2 1.02313e+44
19.3 1.01095e+44
19.4 9.98967e+43
19.5 9.87167e+43
19.6 9.75582e+43
19.7 9.64163e+43
19.8 9.52944e+43
19.9 9.41907e+43
20 9.31029e+43
20.1 9.20345e+43
20.2 9.0981e+43
20.3 8.99456e+43
20.4 8.89265e+43
20.5 8.79218e+43
20.6 8.45368e+43
20.7 8.36001e+43
20.8 8.2679e+43
20.9 8.17718e+43
21 8.08769e+43
21.1 7.99972e+43
21.2 7.91289e+43
21.3 7.82748e+43
21.4 7.74333e+43
21.5 7.66038e+43
21.6 7.57857e+43
21.7 7.49794e+43
21.8 7.4187e+43
21.9 7.34061e+43
22 7.26344e+43
22.1 7.18737e+43
22.2 7.1124e+43
22.3 7.03869e+43
22.4 6.96603e+43
22.5 6.8942e+43
22.6 6.82337e+43
22.7 6.60689e+43
22.8 6.54027e+43
22.9 6.47457e+43
23 6.40959e+43
23.1 6.34548e+43
23.2 6.28226e+43
23.3 6.22007e+43
23.4 7.11563e+43
23.5 1.30574e+44
23.6 1.29482e+44
23.7 1.28401e+44
23.8 1.27337e+44
23.9 1.26283e+44
24 1.25244e+44
24.1 1.24213e+44
24.2 1.23192e+44
24.3 1.22188e+44
24.4 1.21193e+44
24.5 1.20211e+44
24.6 1.19238e+44
24.7 1.18273e+44
24.8 1.17324e+44
24.9 1.16383e+44
25 1.15454e+44
25.1 1.14533e+44
25.2 1.13621e+44
25.3 1.12723e+44
25.4 1.11832e+44
25.5 1.10954e+44
25.6 1.10082e+44
25.7 1.08329e+44
25.8 1.0749e+44
25.9 1.06657e+44
26 1.05835e+44
26.1 1.0502e+44
26.2 1.04211e+44
26.3 1.03415e+44
26.4 1.02626e+44
26.5 1.01846e+44
26.6 1.01073e+44
26.7 1.00305e+44
26.8 9.95502e+43
26.9 9.88009e+43
27 9.80612e+43
27.1 9.73268e+43
27.2 9.65981e+43
27.3 9.5881e+43
27.4 9.51692e+43
27.5 9.44666e+43
27.6 9.37688e+43
27.7 9.30764e+43
27.8 9.23949e+43
27.9 9.17183e+43
28 9.10504e+43
28.1 9.03869e+43
28.2 8.97284e+43
28.3 8.90803e+43
28.4 8.84367e+43
28.5 8.78012e+43
28.6 8.717e+43
28.7 8.65432e+43
28.8 8.59264e+43
28.9 8.53138e+43
29 8.47088e+43
29.1 8.41077e+43
29.2 8.81872e+43
29.3 1.61244e+44
29.4 1.60266e+44
29.5 1.59297e+44
29.6 1.5833e+44
29.7 1.57373e+44
29.8 1.56429e+44
29.9 0
