# Light Curve Count Rate
# Time (sec) 	 Rate (c/s)
0 -nan
0.1 1.68506e+48
0.2 1.73826e+48
0.3 1.77001e+48
0.4 1.79001e+48
0.5 1.80318e+48
0.6 1.8122e+48
0.7 1.81854e+48
0.8 1.82311e+48
0.9 1.82644e+48
1 1.82889e+48
1.1 1.8307e+48
1.2 1.83199e+48
1.3 1.83289e+48
1.4 1.83348e+48
1.5 1.8338e+48
1.6 1.8339e+48
1.7 1.83382e+48
1.8 1.83353e+48
1.9 1.83308e+48
2 1.83247e+48
2.1 1.8317e+48
2.2 1.8308e+48
2.3 1.82971e+48
2.4 1.8285e+48
2.5 1.82719e+48
2.6 1.82574e+48
2.7 1.82394e+48
2.8 1.82197e+48
2.9 1.81987e+48
3 1.81751e+48
3.1 1.81496e+48
3.2 1.81215e+48
3.3 1.80899e+48
3.4 1.80559e+48
3.5 1.80191e+48
3.6 1.79791e+48
3.7 1.79347e+48
3.8 1.78863e+48
3.9 1.78336e+48
4 1.77759e+48
4.1 1.77138e+48
4.2 1.76463e+48
4.3 1.75726e+48
4.4 1.74934e+48
4.5 1.74071e+48
4.6 1.7313e+48
4.7 1.72107e+48
4.8 1.70997e+48
4.9 1.69795e+48
5 1.68493e+48
5.1 1.6709e+48
5.2 1.65725e+48
5.3 1.65695e+48
5.4 1.6861e+48
5.5 1.73297e+48
5.6 1.77516e+48
5.7 1.80439e+48
5.8 1.82256e+48
5.9 1.83357e+48
6 1.84031e+48
6.1 1.84461e+48
6.2 1.84741e+48
6.3 1.8493e+48
6.4 1.85063e+48
6.5 2.77703e+48
6.6 2.77798e+48
6.7 2.77855e+48
6.8 1.85291e+48
6.9 1.85278e+48
7 1.85248e+48
7.1 1.85198e+48
7.2 1.85143e+48
7.3 1.85073e+48
7.4 1.8499e+48
7.5 1.84896e+48
7.6 1.8479e+48
7.7 1.8467e+48
7.8 1.84532e+48
7.9 1.84376e+48
8 1.84193e+48
8.1 1.83985e+48
8.2 1.83742e+48
8.3 1.83466e+48
8.4 1.8315e+48
8.5 1.82786e+48
8.6 1.82374e+48
8.7 1.81903e+48
8.8 1.81364e+48
8.9 1.80749e+48
9 1.80047e+48
9.1 1.79248e+48
9.2 1.78377e+48
9.3 1.7787e+48
9.4 1.78406e+48
9.5 1.79832e+48
9.6 1.8142e+48
9.7 1.82698e+48
9.8 1.83595e+48
9.9 1.84193e+48
10 1.84584e+48
10.1 2.77276e+48
10.2 1.85036e+48
10.3 2.77736e+48
10.4 2.77896e+48
10.5 1.85376e+48
10.6 2.78074e+48
10.7 2.78086e+48
10.8 1.85431e+48
10.9 1.85415e+48
11 2.77922e+48
11.1 2.77822e+48
11.2 2.77697e+48
11.3 1.85142e+48
11.4 2.77431e+48
11.5 1.84958e+48
11.6 1.84843e+48
11.7 2.7687e+48
11.8 1.84539e+48
11.9 1.84358e+48
12 1.84134e+48
12.1 1.83887e+48
12.2 1.83598e+48
12.3 1.83266e+48
12.4 1.82879e+48
12.5 1.82433e+48
12.6 1.81908e+48
12.7 1.81303e+48
12.8 1.80607e+48
12.9 1.798e+48
13 1.78876e+48
13.1 1.77804e+48
13.2 1.76571e+48
13.3 1.75155e+48
13.4 1.73524e+48
13.5 1.71656e+48
13.6 1.69514e+48
13.7 1.67068e+48
13.8 1.64273e+48
13.9 1.61089e+48
14 1.5748e+48
14.1 1.5339e+48
14.2 1.49096e+48
14.3 1.47449e+48
14.4 1.52441e+48
14.5 1.61839e+48
14.6 1.70476e+48
14.7 1.76294e+48
14.8 1.79799e+48
14.9 1.81834e+48
15 1.83051e+48
15.1 1.838e+48
15.2 1.84272e+48
15.3 1.84592e+48
15.4 1.84797e+48
15.5 1.84934e+48
15.6 1.85022e+48
15.7 1.85062e+48
15.8 1.85084e+48
15.9 1.85071e+48
16 2.77274e+48
16.1 2.77183e+48
16.2 2.7705e+48
16.3 1.84803e+48
16.4 2.76694e+48
16.5 1.84521e+48
16.6 1.8435e+48
16.7 1.84136e+48
16.8 1.83894e+48
16.9 1.83607e+48
17 1.8327e+48
17.1 1.829e+48
17.2 1.82447e+48
17.3 1.81934e+48
17.4 1.81328e+48
17.5 1.80629e+48
17.6 1.7983e+48
17.7 1.78897e+48
17.8 1.77826e+48
17.9 1.76587e+48
18 1.75155e+48
18.1 1.7351e+48
18.2 1.71615e+48
18.3 1.69437e+48
18.4 1.66939e+48
18.5 1.64076e+48
18.6 1.60806e+48
18.7 1.57088e+48
18.8 1.52864e+48
18.9 1.48087e+48
19 1.42717e+48
19.1 1.36704e+48
19.2 1.30025e+48
19.3 1.22657e+48
19.4 1.14592e+48
19.5 1.05875e+48
19.6 9.6547e+47
19.7 8.67153e+47
19.8 7.65265e+47
19.9 6.61555e+47
20 5.58487e+47
20.1 4.58736e+47
20.2 3.65018e+47
20.3 2.80129e+47
20.4 2.06283e+47
20.5 1.45143e+47
20.6 9.72287e+46
20.7 6.19496e+46
20.8 3.78544e+46
20.9 2.2658e+46
21 1.40098e+46
21.1 9.59308e+45
21.2 7.51597e+45
21.3 6.7099e+45
21.4 6.39512e+45
21.5 6.32025e+45
21.6 6.29776e+45
21.7 6.26626e+45
21.8 6.29547e+45
21.9 6.26779e+45
22 6.26133e+45
22.1 6.27139e+45
22.2 6.24262e+45
22.3 6.25885e+45
22.4 6.24426e+45
22.5 6.2249e+45
22.6 6.24604e+45
22.7 6.21763e+45
22.8 6.2213e+45
22.9 6.21771e+45
23 6.18967e+45
23.1 6.21508e+45
23.2 6.18959e+45
23.3 6.18195e+45
23.4 6.18811e+45
23.5 6.16016e+45
23.6 6.17422e+45
23.7 6.15794e+45
23.8 6.1414e+45
23.9 6.15559e+45
24 6.12795e+45
24.1 6.13267e+45
24.2 6.12425e+45
24.3 6.09976e+45
24.4 6.1209e+45
24.5 6.09355e+45
24.6 6.09102e+45
24.7 6.08892e+45
24.8 6.06193e+45
24.9 6.08024e+45
25 6.05691e+45
25.1 6.04869e+45
25.2 6.05151e+45
25.3 6.02479e+45
25.4 6.03765e+45
25.5 6.01845e+45
25.6 6.00568e+45
25.7 6.01186e+45
25.8 5.98592e+45
25.9 5.99388e+45
26 5.97859e+45
26.1 5.96269e+45
26.2 5.97087e+45
26.3 5.94462e+45
26.4 5.94988e+45
26.5 5.93738e+45
26.6 5.91964e+45
26.7 5.95937e+45
26.8 6.00236e+45
26.9 6.01679e+45
27 6.05882e+45
27.1 6.06634e+45
27.2 6.13299e+45
27.3 6.11376e+45
27.4 6.20505e+45
27.5 6.18139e+45
27.6 6.25049e+45
27.7 6.24777e+45
27.8 6.29043e+45
27.9 6.31185e+45
28 6.32922e+45
28.1 6.37206e+45
28.2 6.36537e+45
28.3 6.42903e+45
28.4 6.40326e+45
28.5 6.48076e+45
28.6 6.45714e+45
28.7 6.51114e+45
28.8 6.50796e+45
28.9 6.53942e+45
29 6.55663e+45
29.1 6.56714e+45
29.2 6.60269e+45
29.3 6.59258e+45
29.4 6.64573e+45
29.5 6.61657e+45
29.6 6.68597e+45
29.7 6.65761e+45
29.8 6.70692e+45
29.9 0
