# Light Curve Count Rate
# Time (sec) 	 Rate (c/s)
0.1 8.90955e+51
0.2 8.92231e+51
0.3 8.70613e+51
0.4 8.32125e+51
0.5 7.82133e+51
0.6 7.25124e+51
0.7 6.64643e+51
0.8 6.0341e+51
0.9 5.43394e+51
1 4.85971e+51
1.1 4.32035e+51
1.2 3.82117e+51
1.3 3.36436e+51
1.4 2.95044e+51
1.5 2.57841e+51
1.6 2.24637e+51
1.7 1.95178e+51
1.8 1.69173e+51
1.9 1.46314e+51
2 1.26292e+51
2.1 1.08806e+51
2.2 9.35906e+50
2.3 8.03868e+50
2.4 6.89533e+50
2.5 5.90815e+50
2.6 5.05619e+50
2.7 4.32278e+50
2.8 3.69257e+50
2.9 3.49421e+50
3 2.73212e+50
3.1 2.68484e+50
3.2 4.1327e+50
3.3 7.80181e+50
3.4 1.53214e+51
3.5 2.51757e+51
3.6 3.45553e+51
3.7 4.17251e+51
3.8 4.60829e+51
3.9 4.77087e+51
4 4.70842e+51
4.1 4.4804e+51
4.2 4.14531e+51
4.3 3.75093e+51
4.4 3.33437e+51
4.5 2.92193e+51
4.6 2.53073e+51
4.7 2.171e+51
4.8 1.84767e+51
4.9 1.56241e+51
5 1.31379e+51
5.1 1.09981e+51
5.2 9.17287e+50
5.3 7.62804e+50
5.4 6.3283e+50
5.5 5.2395e+50
5.6 4.33207e+50
5.7 3.92027e+50
5.8 3.00648e+50
5.9 2.71153e+50
6 2.2735e+50
6.1 2.06657e+50
6.2 1.62707e+50
6.3 1.50333e+50
6.4 1.30447e+50
6.5 1.21766e+50
6.6 1.07485e+50
6.7 1.01506e+50
6.8 9.11562e+49
6.9 8.33543e+49
7 7.97757e+49
7.1 6.97074e+49
7.2 6.79112e+49
7.3 2.09897e+50
7.4 5.30319e+50
7.5 5.79477e+50
7.6 6.97285e+50
7.7 8.30709e+50
7.8 9.37485e+50
7.9 1.01284e+51
8 1.06264e+51
8.1 1.09719e+51
8.2 1.10317e+51
8.3 1.09327e+51
8.4 1.06983e+51
8.5 1.0399e+51
8.6 9.98732e+50
8.7 9.59387e+50
8.8 9.05964e+50
8.9 8.55567e+50
9 8.04869e+50
9.1 7.528e+50
9.2 7.04171e+50
9.3 6.56822e+50
9.4 6.09987e+50
9.5 5.66925e+50
9.6 5.26035e+50
9.7 4.89085e+50
9.8 4.5106e+50
9.9 4.53065e+50
10 1.0161e+50
10.1 6.60486e+49
10.2 6.49489e+49
10.3 6.07579e+49
10.4 5.65504e+49
10.5 5.09306e+49
10.6 4.93859e+49
10.7 4.77528e+49
10.8 4.61004e+49
10.9 4.43813e+49
11 4.26916e+49
11.1 4.1025e+49
11.2 3.93495e+49
11.3 3.77444e+49
11.4 3.61102e+49
11.5 3.4566e+49
11.6 3.3051e+49
11.7 3.15478e+49
11.8 3.01202e+49
11.9 2.87201e+49
12 2.73891e+49
12.1 2.61015e+49
12.2 2.46893e+49
12.3 2.31819e+49
12.4 2.18161e+49
12.5 2.05568e+49
12.6 1.94152e+49
12.7 1.83546e+49
12.8 1.73704e+49
12.9 1.64696e+49
13 1.56481e+49
13.1 1.48742e+49
13.2 1.41553e+49
13.3 1.34995e+49
13.4 1.28857e+49
13.5 1.23077e+49
13.6 1.17761e+49
13.7 1.1274e+49
13.8 1.08098e+49
13.9 1.03784e+49
14 9.96605e+48
14.1 9.58231e+48
14.2 9.22885e+48
14.3 8.88718e+48
14.4 8.57007e+48
14.5 8.26367e+48
14.6 7.98925e+48
14.7 7.71506e+48
14.8 7.45815e+48
14.9 0
