# Light Curve Count Rate
# Time (sec) 	 Rate (c/s)
0 4.85235e+49
0.1 8.1276e+49
0.2 8.70495e+49
0.3 8.84851e+49
0.4 8.89361e+49
0.5 8.90337e+49
0.6 8.89348e+49
0.7 8.86704e+49
0.8 8.82191e+49
0.9 8.75219e+49
1 8.64795e+49
1.1 8.49413e+49
1.2 8.26896e+49
1.3 7.94232e+49
1.4 7.47507e+49
1.5 6.82182e+49
1.6 5.94107e+49
1.7 4.81891e+49
1.8 3.5086e+49
1.9 2.16955e+49
2 1.05046e+49
2.1 3.55043e+48
2.2 1.0905e+48
2.3 1.1983e+47
2.4 1.10023e+46
2.5 1.11385e+45
2.6 6.62389e+43
2.7 2.04144e+42
2.8 1.29843e+41
2.9 5.47997e+39
3 1.44348e+38
3.1 1.9213e+37
3.2 1.00176e+48
3.3 4.3586e+49
3.4 7.84116e+49
3.5 8.56846e+49
3.6 8.75977e+49
3.7 8.82044e+49
3.8 8.83232e+49
3.9 8.8162e+49
4 8.77584e+49
4.1 8.70769e+49
4.2 8.60297e+49
4.3 8.44693e+49
4.4 8.21786e+49
4.5 7.88538e+49
4.6 7.4098e+49
4.7 6.74506e+49
4.8 5.84912e+49
4.9 4.7094e+49
5 3.38467e+49
5.1 2.0456e+49
5.2 9.51669e+48
5.3 3.00416e+48
5.4 8.05627e+47
5.5 7.85873e+46
5.6 5.86527e+45
5.7 4.77893e+44
5.8 2.12153e+43
5.9 1.76873e+42
6 1.00094e+41
6.1 3.6182e+39
6.2 7.7784e+37
6.3 9.15046e+36
6.4 9.15559e+35
6.5 5.36271e+33
6.6 3.05415e+32
6.7 3.05417e+32
6.8 1.40006e+31
6.9 5.08188e+29
7 1.43517e+28
7.1 1.43516e+28
7.2 3.09456e+26
7.3 2.34717e+49
7.4 6.9405e+49
7.5 8.21699e+49
7.6 8.5549e+49
7.7 8.66254e+49
7.8 8.68598e+49
7.9 8.66247e+49
8 8.5996e+49
8.1 8.49295e+49
8.2 8.32936e+49
8.3 8.08819e+49
8.4 7.73967e+49
8.5 7.24498e+49
8.6 6.56047e+49
8.7 5.64828e+49
8.8 4.50308e+49
8.9 3.19264e+49
9 1.89338e+49
9.1 8.58047e+48
9.2 2.61238e+48
9.3 6.74162e+47
9.4 6.16679e+46
9.5 9.08475e+45
9.6 3.26877e+44
9.7 1.33241e+43
9.8 1.03584e+42
9.9 5.39982e+40
10 1.7704e+39
10.1 3.38864e+37
10.2 3.731e+36
10.3 3.47268e+35
10.4 2.69724e+34
10.5 1.72398e+33
10.6 8.93355e+31
10.7 3.69321e+30
10.8 1.19728e+29
10.9 1.19729e+29
11 2.9878e+27
11.1 2.98782e+27
11.2 5.62659e+25
11.3 7.82738e+23
11.4 7.82745e+23
11.5 7.82738e+23
11.6 7.8617e+21
11.7 7.86162e+21
11.8 5.53594e+19
11.9 5.536e+19
12 5.53594e+19
12.1 2.67527e-07
12.2 2.67524e-07
12.3 2.67524e-07
12.4 2.67527e-07
12.5 2.67524e-07
12.6 1.43158e-11
12.7 1.43156e-11
12.8 1.43156e-11
12.9 1.43158e-11
13 1.43156e-11
13.1 1.43158e-11
13.2 1.43156e-11
13.3 1.43156e-11
13.4 1.43158e-11
13.5 3.68004e-16
13.6 3.68007e-16
13.7 3.68004e-16
13.8 3.68004e-16
13.9 3.68007e-16
14 3.68004e-16
14.1 3.68007e-16
14.2 3.68004e-16
14.3 3.68004e-16
14.4 3.68007e-16
14.5 4.30857e-21
14.6 4.30861e-21
14.7 4.30857e-21
14.8 4.30857e-21
14.9 0
