# Light Curve Count Rate
# Time (sec) 	 Rate (c/s)
0 -nan
0.1 8.00107e+49
0.2 8.09662e+49
0.3 8.1541e+49
0.4 8.18519e+49
0.5 8.19675e+49
0.6 8.1929e+49
0.7 8.17612e+49
0.8 8.14791e+49
0.9 8.10905e+49
1 8.05988e+49
1.1 8.00041e+49
1.2 7.93041e+49
1.3 7.84943e+49
1.4 7.75684e+49
1.5 7.65194e+49
1.6 7.53391e+49
1.7 7.40179e+49
1.8 7.25462e+49
1.9 7.09138e+49
2 6.91106e+49
2.1 6.71272e+49
2.2 6.49539e+49
2.3 6.25834e+49
2.4 6.00108e+49
2.5 5.72329e+49
2.6 5.42519e+49
2.7 5.10726e+49
2.8 4.77068e+49
2.9 4.41736e+49
3 4.04986e+49
3.1 3.67159e+49
3.2 3.28685e+49
3.3 2.90077e+49
3.4 2.51922e+49
3.5 2.14863e+49
3.6 1.79552e+49
3.7 1.4664e+49
3.8 1.16713e+49
3.9 9.02493e+48
4 6.75733e+48
4.1 4.87945e+48
4.2 3.3844e+48
4.3 2.24511e+48
4.4 1.79046e+48
4.5 1.07677e+48
4.6 6.10015e+47
4.7 2.87189e+47
4.8 1.43676e+47
4.9 8.73071e+46
5 3.83365e+46
5.1 2.07675e+46
5.2 9.32616e+45
5.3 5.79705e+45
5.4 4.07004e+45
5.5 3.32582e+45
5.6 4.01055e+45
5.7 4.47123e+45
5.8 4.60296e+45
5.9 4.42103e+45
6 4.24737e+45
6.1 4.54304e+45
6.2 4.90299e+45
6.3 4.72431e+45
6.4 4.55058e+45
6.5 4.77409e+45
6.6 5.20957e+45
6.7 5.02985e+45
6.8 4.86606e+45
6.9 5.02689e+45
7 5.53477e+45
7.1 5.35954e+45
7.2 5.18796e+45
7.3 6.26134e+48
7.4 4.12915e+49
7.5 6.62958e+49
7.6 7.62352e+49
7.7 8.03515e+49
7.8 8.21738e+49
7.9 8.29188e+49
8 8.42341e+49
8.1 8.64276e+49
8.2 8.69736e+49
8.3 8.62987e+49
8.4 8.47464e+49
8.5 8.24625e+49
8.6 7.95347e+49
8.7 7.59511e+49
8.8 7.16758e+49
8.9 6.6638e+49
9 6.07807e+49
9.1 5.4072e+49
9.2 4.65549e+49
9.3 3.84141e+49
9.4 3.00093e+49
9.5 2.18629e+49
9.6 1.46019e+49
9.7 8.79519e+48
9.8 4.74493e+48
9.9 2.36065e+48
10 1.41082e+48
10.1 8.0815e+47
10.2 6.33401e+47
10.3 5.48008e+47
10.4 4.95716e+47
10.5 4.54934e+47
10.6 4.19072e+47
10.7 3.86505e+47
10.8 3.57962e+47
10.9 3.31391e+47
11 3.0783e+47
11.1 2.86716e+47
11.2 2.67122e+47
11.3 2.49048e+47
11.4 2.3262e+47
11.5 2.17451e+47
11.6 2.04206e+47
11.7 1.91535e+47
11.8 1.79766e+47
11.9 1.69031e+47
12 1.59909e+47
12.1 1.50376e+47
12.2 1.42273e+47
12.3 1.34098e+47
12.4 1.2771e+47
12.5 1.20865e+47
12.6 1.14463e+47
12.7 1.08851e+47
12.8 1.03608e+47
12.9 9.89349e+46
13 9.41305e+46
13.1 8.95309e+46
13.2 8.58057e+46
13.3 8.22755e+46
13.4 7.84613e+46
13.5 7.51617e+46
13.6 7.2005e+46
13.7 6.94597e+46
13.8 6.65679e+46
13.9 6.39621e+46
14 6.13906e+46
14.1 5.9333e+46
14.2 5.72376e+46
14.3 5.51793e+46
14.4 5.31121e+46
14.5 5.1309e+46
14.6 4.98573e+46
14.7 4.83995e+46
14.8 4.71564e+46
14.9 4.55299e+46
15 4.39759e+46
15.1 4.25098e+46
15.2 4.16447e+46
15.3 4.0501e+46
15.4 3.92242e+46
15.5 3.80139e+46
15.6 3.70076e+46
15.7 3.62898e+46
15.8 3.52391e+46
15.9 3.42378e+46
16 3.32929e+46
16.1 3.27526e+46
16.2 3.20189e+46
16.3 3.11485e+46
16.4 3.03225e+46
16.5 2.95555e+46
16.6 2.93059e+46
16.7 2.85803e+46
16.8 2.7909e+46
16.9 2.72205e+46
17 2.67452e+46
17.1 2.64485e+46
17.2 2.58417e+46
17.3 2.52433e+46
17.4 2.46662e+46
17.5 2.44685e+46
17.6 2.41044e+46
17.7 2.35807e+46
17.8 2.30783e+46
17.9 2.26081e+46
18 2.25853e+46
18.1 2.21767e+46
18.2 2.1739e+46
18.3 2.1319e+46
18.4 2.09491e+46
18.5 2.09801e+46
18.6 2.05957e+46
18.7 2.02183e+46
18.8 1.9843e+46
18.9 1.96139e+46
19 1.96145e+46
19.1 1.92742e+46
19.2 1.89364e+46
19.3 1.86081e+46
19.4 1.85113e+46
19.5 1.84649e+46
19.6 1.8159e+46
19.7 1.78611e+46
19.8 1.7586e+46
19.9 1.75492e+46
20 1.74918e+46
20.1 1.722e+46
20.2 1.69669e+46
20.3 1.67189e+46
20.4 1.67197e+46
20.5 1.66638e+46
20.6 1.64272e+46
20.7 1.62052e+46
20.8 1.59727e+46
20.9 1.59996e+46
21 1.59552e+46
21.1 1.57581e+46
21.2 1.55432e+46
21.3 1.53327e+46
21.4 1.53681e+46
21.5 1.53591e+46
21.6 1.51687e+46
21.7 1.49728e+46
21.8 1.47809e+46
21.9 1.48109e+46
22 1.48417e+46
22.1 1.46586e+46
22.2 1.44791e+46
22.3 1.4303e+46
22.4 1.43219e+46
22.5 1.43873e+46
22.6 1.42187e+46
22.7 1.40532e+46
22.8 1.38907e+46
22.9 1.38597e+46
23 1.39955e+46
23.1 1.38393e+46
23.2 1.36859e+46
23.3 1.35364e+46
23.4 1.34365e+46
23.5 1.3653e+46
23.6 1.35077e+46
23.7 1.33647e+46
23.8 1.32282e+46
23.9 1.30859e+46
24 1.32298e+46
24.1 1.31607e+46
24.2 1.30279e+46
24.3 1.2902e+46
24.4 1.27816e+46
24.5 1.28162e+46
24.6 1.28592e+46
24.7 1.27353e+46
24.8 1.26163e+46
24.9 1.25142e+46
25 1.24342e+46
25.1 1.25923e+46
25.2 1.24761e+46
25.3 1.23616e+46
25.4 1.227e+46
25.5 1.21334e+46
25.6 1.23128e+46
25.7 1.22505e+46
25.8 1.21426e+46
25.9 1.20507e+46
26 1.19442e+46
26.1 1.19678e+46
26.2 1.20499e+46
26.3 1.19479e+46
26.4 1.18537e+46
26.5 1.17699e+46
26.6 1.16502e+46
26.7 1.18753e+46
26.8 1.17785e+46
26.9 1.1683e+46
27 1.16051e+46
27.1 1.15065e+46
27.2 1.15661e+46
27.3 1.16276e+46
27.4 1.15366e+46
27.5 1.14506e+46
27.6 1.13799e+46
27.7 1.12704e+46
27.8 1.14965e+46
27.9 1.14097e+46
28 1.13238e+46
28.1 1.1248e+46
28.2 1.11718e+46
28.3 1.11998e+46
28.4 1.12966e+46
28.5 1.12143e+46
28.6 1.1133e+46
28.7 1.10656e+46
28.8 1.09806e+46
28.9 1.1142e+46
29 1.11199e+46
29.1 1.10419e+46
29.2 1.09641e+46
29.3 1.09009e+46
29.4 1.08588e+46
29.5 1.1036e+46
29.6 1.09609e+46
29.7 1.08864e+46
29.8 1.08127e+46
29.9 0
