# Light Curve Count Rate
# Time (sec) 	 Rate (c/s)
0.1 6.07928e+46
0.2 1.33415e+47
0.3 2.87536e+47
0.4 5.60443e+47
0.5 8.49152e+47
0.6 1.10739e+48
0.7 1.31082e+48
0.8 1.59796e+48
0.9 2.13242e+48
1 2.77013e+48
1.1 3.2189e+48
1.2 3.48397e+48
1.3 3.647e+48
1.4 3.73564e+48
1.5 3.78715e+48
1.6 3.81655e+48
1.7 3.83878e+48
1.8 3.85033e+48
1.9 3.85802e+48
2 3.86082e+48
2.1 3.86501e+48
2.2 3.85516e+48
2.3 3.8382e+48
2.4 3.79928e+48
2.5 3.73767e+48
2.6 3.64614e+48
2.7 3.52219e+48
2.8 3.35926e+48
2.9 3.16435e+48
3 2.9248e+48
3.1 2.64336e+48
3.2 2.31404e+48
3.3 1.92951e+48
3.4 1.50923e+48
3.5 1.11887e+48
3.6 8.6929e+47
3.7 6.95771e+47
3.8 6.0585e+47
3.9 5.42708e+47
4 4.90445e+47
4.1 4.46185e+47
4.2 4.11158e+47
4.3 4.09201e+47
4.4 5.07792e+47
4.5 7.26357e+47
4.6 9.87969e+47
4.7 1.24244e+48
4.8 1.59052e+48
4.9 2.22459e+48
5 2.92498e+48
5.1 3.36656e+48
5.2 3.59545e+48
5.3 3.70254e+48
5.4 3.75193e+48
5.5 3.76638e+48
5.6 3.76188e+48
5.7 3.74904e+48
5.8 3.73627e+48
5.9 3.72431e+48
6 3.70494e+48
6.1 3.69137e+48
6.2 3.68269e+48
6.3 3.6597e+48
6.4 3.63445e+48
6.5 3.60676e+48
6.6 3.55288e+48
6.7 3.48366e+48
6.8 3.38407e+48
6.9 3.2329e+48
7 3.03548e+48
7.1 2.75241e+48
7.2 2.40159e+48
7.3 2.00367e+48
7.4 1.63365e+48
7.5 1.39709e+48
7.6 1.23134e+48
7.7 1.10848e+48
7.8 1.00702e+48
7.9 9.19277e+47
8 8.4074e+47
8.1 7.70614e+47
8.2 7.07214e+47
8.3 6.50624e+47
8.4 6.07191e+47
8.5 6.31807e+47
8.6 7.79921e+47
8.7 1.01954e+48
8.8 1.32259e+48
8.9 2.08909e+48
9 2.83809e+48
9.1 3.28124e+48
9.2 3.51014e+48
9.3 3.61646e+48
9.4 3.6642e+48
9.5 3.67823e+48
9.6 3.6711e+48
9.7 3.65459e+48
9.8 3.63818e+48
9.9 3.62131e+48
10 1.99363e+48
10.1 1.97103e+48
10.2 1.75062e+48
10.3 1.47384e+48
10.4 1.26225e+48
10.5 1.0847e+48
10.6 9.49259e+47
10.7 8.3e+47
10.8 7.32601e+47
10.9 6.54724e+47
11 5.84375e+47
11.1 5.24897e+47
11.2 4.75491e+47
11.3 4.32834e+47
11.4 3.94051e+47
11.5 3.60296e+47
11.6 3.30656e+47
11.7 3.05669e+47
11.8 2.83504e+47
11.9 2.62559e+47
12 2.4382e+47
12.1 2.26996e+47
12.2 2.12309e+47
12.3 1.98852e+47
12.4 1.86508e+47
12.5 1.76064e+47
12.6 1.65706e+47
12.7 1.56747e+47
12.8 1.4815e+47
12.9 1.40088e+47
13 1.32655e+47
13.1 1.25915e+47
13.2 1.20172e+47
13.3 1.14263e+47
13.4 1.08771e+47
13.5 1.03697e+47
13.6 9.97697e+46
13.7 9.54441e+46
13.8 9.12478e+46
13.9 8.73711e+46
14 8.41055e+46
14.1 8.14986e+46
14.2 7.83272e+46
14.3 7.52288e+46
14.4 7.23116e+46
14.5 7.01219e+46
14.6 6.76474e+46
14.7 6.51644e+46
14.8 6.28132e+46
14.9 0
