# Spectrum Count Rate
# Energy bin (keV) 	 Rate (c/s) 	 Uncertainty (c/s)
8.17402 2.26884e+48 0
8.52964 2.08001e+48 0
8.90073 1.90587e+48 0
9.28796 1.74544e+48 0
9.69204 1.5978e+48 0
10.1137 1.46206e+48 0
10.5537 1.3374e+48 0
11.0129 1.22303e+48 0
11.492 1.11818e+48 0
11.9919 1.02216e+48 0
12.5137 9.34272e+47 0
13.0581 8.53891e+47 0
13.6262 7.80413e+47 0
14.219 7.13272e+47 0
14.8376 6.51942e+47 0
15.4831 5.95928e+47 0
16.1567 5.44776e+47 0
16.8596 4.98062e+47 0
17.5931 4.55399e+47 0
18.3585 4.16429e+47 0
19.1572 3.80826e+47 0
19.9907 3.48292e+47 0
20.8604 3.18557e+47 0
21.7679 2.91373e+47 0
22.715 2.66518e+47 0
23.7032 2.43788e+47 0
24.7344 2.22998e+47 0
25.8105 2.03982e+47 0
26.9334 1.86585e+47 0
28.1052 1.7067e+47 0
29.3279 1.5611e+47 0
30.6039 1.4279e+47 0
31.9353 1.30603e+47 0
33.3247 1.19454e+47 0
34.7745 1.09255e+47 0
36.2874 9.99252e+46 0
37.8661 9.13903e+46 0
39.5135 8.35832e+46 0
41.2325 7.64419e+46 0
43.0264 6.99099e+46 0
44.8983 6.39353e+46 0
46.8516 5.84708e+46 0
48.8899 5.34728e+46 0
51.0169 4.89016e+46 0
53.2365 4.47209e+46 0
55.5526 4.08974e+46 0
57.9694 3.74005e+46 0
60.4914 3.42025e+46 0
63.1231 3.12778e+46 0
65.8694 2.8603e+46 0
68.7351 2.61569e+46 0
71.7254 2.39199e+46 0
74.8459 2.18742e+46 0
78.1021 2.00033e+46 0
81.5 1.82925e+46 0
85.0457 1.67279e+46 0
88.7457 1.52971e+46 0
92.6067 1.39887e+46 0
96.6356 1.27922e+46 0
100.84 1.1698e+46 0
105.227 1.06973e+46 0
109.805 9.7823e+45 0
114.582 8.94552e+45 0
119.567 8.18032e+45 0
124.769 7.48057e+45 0
130.197 6.84067e+45 0
135.861 6.2555e+45 0
141.772 5.72038e+45 0
147.94 5.23104e+45 0
154.376 4.78356e+45 0
161.092 4.37435e+45 0
168.101 4.00015e+45 0
175.414 3.65796e+45 0
183.046 3.34504e+45 0
191.009 3.05888e+45 0
199.319 2.79721e+45 0
207.991 2.55792e+45 0
217.04 2.3391e+45 0
226.482 2.139e+45 0
236.336 1.95601e+45 0
246.617 1.78868e+45 0
257.347 1.63567e+45 0
268.543 1.49574e+45 0
280.226 1.36779e+45 0
292.417 1.25078e+45 0
305.139 1.14378e+45 0
318.415 1.04593e+45 0
332.267 9.56452e+44 0
346.723 8.74631e+44 0
361.807 7.99808e+44 0
377.548 7.31387e+44 0
393.974 6.68818e+44 0
411.114 6.11603e+44 0
429 5.59281e+44 0
447.664 5.11436e+44 0
467.139 4.67684e+44 0
487.463 4.27675e+44 0
508.67 3.91088e+44 0
530.8 3.57631e+44 0
553.893 3.27037e+44 0
577.991 2.9906e+44 0
603.137 2.73476e+44 0
629.377 2.5008e+44 0
656.758 2.28687e+44 0
685.331 2.09123e+44 0
715.147 1.91233e+44 0
746.26 1.74873e+44 0
778.726 1.59913e+44 0
812.605 1.46233e+44 0
847.958 1.33723e+44 0
884.849 1.22283e+44 0
923.345 1.11822e+44 0
963.516 1.02256e+44 0
1005.43 9.35082e+43 0
1049.18 8.55087e+43 0
1094.82 7.81936e+43 0
1142.45 7.15043e+43 0
1192.16 6.53872e+43 0
1244.02 5.97935e+43 0
1298.14 5.46783e+43 0
1354.62 5.00007e+43 0
1413.55 4.57232e+43 0
1475.05 4.18116e+43 0
1539.23 3.82347e+43 0
1606.19 3.49638e+43 0
1676.07 3.19727e+43 0
1748.99 2.92375e+43 0
1825.08 2.67363e+43 0
1904.48 2.44491e+43 0
1987.34 2.23575e+43 0
2073.8 2.04449e+43 0
2164.02 1.86958e+43 0
2258.17 1.70964e+43 0
2356.41 1.56339e+43 0
2458.93 1.42964e+43 0
2565.91 1.30734e+43 0
2677.54 1.1955e+43 0
2794.02 1.09323e+43 0
2915.58 9.99702e+42 0
3042.43 9.14179e+42 0
3174.79 8.35973e+42 0
3312.91 7.64457e+42 0
3457.04 6.99059e+42 0
3607.44 6.39256e+42 0
3764.39 5.84569e+42 0
3928.16 5.3456e+42 0
4099.06 4.88829e+42 0
4277.39 4.47011e+42 0
4463.48 4.0877e+42 0
4657.67 3.738e+42 0
4860.3 3.41822e+42 0
5071.75 3.1258e+42 0
5292.4 2.85839e+42 0
5522.65 2.61386e+42 0
5762.92 2.39025e+42 0
6013.64 2.18577e+42 0
6275.27 1.99878e+42 0
6548.28 1.82779e+42 0
6833.17 1.67142e+42 0
7130.45 1.52844e+42 0
7440.67 1.39768e+42 0
7764.38 1.27811e+42 0
8102.17 1.16877e+42 0
8454.66 1.06879e+42 0
8822.49 9.77354e+41 0
9206.32 8.93743e+41 0
9606.85 8.17285e+41 0
10024.8 7.47368e+41 0
10460.9 6.83432e+41 0
10916 6.24965e+41 0
11391 5.71501e+41 0
11886.5 5.2261e+41 0
12403.7 4.77901e+41 0
12943.3 4.37018e+41 0
13506.4 3.99632e+41 0
14094 3.65444e+41 0
14707.2 3.34181e+41 0
15347 3.05592e+41 0
16014.7 2.7945e+41 0
16711.4 2.55543e+41 0
17438.5 2.33682e+41 0
18197.2 2.13691e+41 0
18988.8 1.9541e+41 0
19815 1.78693e+41 0
20677 1.63406e+41 0
21576.6 1.49427e+41 0
22515.3 1.36644e+41 0
23494.9 1.24954e+41 0
24517 1.14265e+41 0
25583.6 1.04489e+41 0
26696.7 9.55505e+40 0
27858.1 8.73763e+40 0
29070.1 7.99015e+40 0
30334.8 7.30661e+40 0
31654.6 6.68154e+40 0
33031.8 6.10994e+40 0
34468.8 5.58725e+40 0
35968.4 5.10927e+40 0
37533.2 4.67218e+40 0
39166.2 4.27248e+40 0
