# Light Curve Count Rate
# Time (sec) 	 Rate (c/s)
0.1 3.13722e+47
0.2 4.5366e+47
0.3 6.58043e+47
0.4 8.81872e+47
0.5 1.07786e+48
0.6 1.22446e+48
0.7 1.32446e+48
0.8 1.40255e+48
0.9 1.47131e+48
1 1.51716e+48
1.1 1.54715e+48
1.2 1.57522e+48
1.3 1.60898e+48
1.4 1.64111e+48
1.5 1.6675e+48
1.6 1.68539e+48
1.7 1.69432e+48
1.8 1.6935e+48
1.9 1.68551e+48
2 1.67526e+48
2.1 1.66329e+48
2.2 1.64857e+48
2.3 1.63198e+48
2.4 1.61489e+48
2.5 1.59831e+48
2.6 1.58099e+48
2.7 1.5615e+48
2.8 1.53766e+48
2.9 1.50653e+48
3 1.46264e+48
3.1 1.39792e+48
3.2 1.29996e+48
3.3 1.15313e+48
3.4 9.45572e+47
3.5 6.86269e+47
3.6 4.23375e+47
3.7 2.24191e+47
3.8 1.30634e+47
3.9 8.14213e+46
4 6.49644e+46
4.1 8.0769e+46
4.2 1.39314e+47
4.3 2.86057e+47
4.4 5.26615e+47
4.5 7.75961e+47
4.6 9.95976e+47
4.7 1.16312e+48
4.8 1.2952e+48
4.9 1.40051e+48
5 1.47614e+48
5.1 1.54046e+48
5.2 1.61654e+48
5.3 1.69529e+48
5.4 1.76768e+48
5.5 1.82865e+48
5.6 1.87731e+48
5.7 1.91406e+48
5.8 1.93966e+48
5.9 1.95596e+48
6 1.96049e+48
6.1 1.95673e+48
6.2 1.94233e+48
6.3 1.91729e+48
6.4 1.88354e+48
6.5 1.84125e+48
6.6 1.79057e+48
6.7 1.73389e+48
6.8 1.67114e+48
6.9 1.5969e+48
7 1.50331e+48
7.1 1.37527e+48
7.2 1.19894e+48
7.3 9.63102e+47
7.4 6.81428e+47
7.5 4.1011e+47
7.6 2.4844e+47
7.7 1.43576e+47
7.8 1.11233e+47
7.9 9.37368e+46
8 8.37763e+46
8.1 7.70692e+46
8.2 7.58887e+46
8.3 1.02488e+47
8.4 2.0684e+47
8.5 4.37194e+47
8.6 6.84337e+47
8.7 9.1473e+47
8.8 1.11331e+48
8.9 1.27065e+48
9 1.38592e+48
9.1 1.491e+48
9.2 1.59958e+48
9.3 1.69913e+48
9.4 1.78315e+48
9.5 1.85002e+48
9.6 1.90062e+48
9.7 1.93739e+48
9.8 1.96267e+48
9.9 1.97856e+48
10 5.24345e+47
10.1 5.22738e+47
10.2 4.58149e+47
10.3 3.80778e+47
10.4 3.21249e+47
10.5 2.73034e+47
10.6 2.34948e+47
10.7 2.03577e+47
10.8 1.77702e+47
10.9 1.56417e+47
11 1.38562e+47
11.1 1.23252e+47
11.2 1.10307e+47
11.3 9.95498e+46
11.4 8.98612e+46
11.5 8.15674e+46
11.6 7.44691e+46
11.7 6.8073e+46
11.8 6.26921e+46
11.9 5.77749e+46
12 5.33222e+46
12.1 4.96404e+46
12.2 4.6057e+46
12.3 4.30148e+46
12.4 4.02629e+46
12.5 3.76904e+46
12.6 3.55949e+46
12.7 3.34104e+46
12.8 3.1626e+46
12.9 2.99061e+46
13 2.83141e+46
13.1 2.69952e+46
13.2 2.55677e+46
13.3 2.45359e+46
13.4 2.333e+46
13.5 2.23851e+46
13.6 2.14337e+46
13.7 2.05568e+46
13.8 1.98159e+46
13.9 1.89937e+46
14 1.84271e+46
14.1 1.76641e+46
14.2 1.72164e+46
14.3 1.65522e+46
14.4 1.61298e+46
14.5 1.55872e+46
14.6 1.51854e+46
14.7 1.47442e+46
14.8 1.43616e+46
14.9 0
