# Spectrum Count Rate
# Energy bin (keV) 	 Rate (c/s) 	 Uncertainty (c/s)
1.08072e-10 7.93872e+54 0
1.25521e-10 7.22319e+54 0
1.45786e-10 6.50507e+54 0
1.69323e-10 5.89073e+54 0
1.96659e-10 5.34613e+54 0
2.2841e-10 4.83651e+54 0
2.65286e-10 4.3829e+54 0
3.08116e-10 3.96019e+54 0
3.57861e-10 3.58651e+54 0
4.15638e-10 3.24321e+54 0
4.82742e-10 2.93664e+54 0
5.6068e-10 2.65532e+54 0
6.51201e-10 2.40559e+54 0
7.56336e-10 2.17644e+54 0
8.78446e-10 1.96959e+54 0
1.02027e-09 1.78156e+54 0
1.18499e-09 1.61274e+54 0
1.37631e-09 1.45944e+54 0
1.59851e-09 1.32115e+54 0
1.85659e-09 1.19565e+54 0
2.15633e-09 1.08243e+54 0
2.50446e-09 9.79683e+53 0
2.90881e-09 1.06496e+54 0
3.37843e-09 9.34054e+53 0
3.92387e-09 8.23408e+53 0
4.55738e-09 7.28936e+53 0
5.29316e-09 6.47565e+53 0
6.14773e-09 6.1383e+53 0
7.14027e-09 5.43455e+53 0
8.29306e-09 4.82646e+53 0
9.63196e-09 4.44025e+53 0
1.1187e-08 4.04695e+53 0
1.29932e-08 3.66642e+53 0
1.50909e-08 3.30725e+53 0
1.75273e-08 2.97697e+53 0
2.0357e-08 2.70356e+53 0
2.36437e-08 2.44302e+53 0
2.74609e-08 2.20104e+53 0
3.18944e-08 1.99079e+53 0
3.70437e-08 1.80308e+53 0
4.30244e-08 1.6333e+53 0
4.99706e-08 1.47807e+53 0
5.80383e-08 1.33939e+53 0
6.74085e-08 1.21132e+53 0
7.82915e-08 1.09533e+53 0
9.09316e-08 9.90991e+52 0
1.05612e-07 8.97276e+52 0
1.22663e-07 8.12039e+52 0
1.42467e-07 7.34761e+52 0
1.65468e-07 6.6463e+52 0
1.92183e-07 6.01493e+52 0
2.23211e-07 5.44107e+52 0
2.59248e-07 4.92286e+52 0
3.01103e-07 4.45332e+52 0
3.49715e-07 4.02761e+52 0
4.06176e-07 3.64281e+52 0
4.71753e-07 3.29485e+52 0
5.47917e-07 2.97912e+52 0
6.36377e-07 2.69367e+52 0
7.3912e-07 2.43498e+52 0
8.58449e-07 2.20084e+52 0
9.97045e-07 1.98873e+52 0
1.15802e-06 1.79664e+52 0
1.34498e-06 1.6226e+52 0
1.56212e-06 1.46494e+52 0
1.81432e-06 1.32207e+52 0
2.10724e-06 1.1926e+52 0
2.44745e-06 1.07524e+52 0
2.84259e-06 9.68845e+51 0
3.30153e-06 8.72365e+51 0
3.83455e-06 7.84852e+51 0
4.45363e-06 7.05451e+51 0
5.17267e-06 6.33394e+51 0
6.00779e-06 5.67984e+51 0
6.97774e-06 5.0859e+51 0
8.10429e-06 4.54649e+51 0
9.41271e-06 4.0565e+51 0
1.09324e-05 3.61135e+51 0
1.26974e-05 3.20694e+51 0
1.47474e-05 2.83961e+51 0
1.71283e-05 2.50609e+51 0
1.98937e-05 2.20348e+51 0
2.31055e-05 1.92922e+51 0
2.68358e-05 1.68106e+51 0
3.11684e-05 1.457e+51 0
3.62005e-05 1.2553e+51 0
4.2045e-05 1.07443e+51 0
4.88331e-05 9.13022e+50 0
5.67172e-05 7.69833e+50 0
6.58741e-05 6.43721e+50 0
7.65094e-05 5.3358e+50 0
8.88617e-05 4.38315e+50 0
0.000103208 3.56799e+50 0
0.000119871 2.87855e+50 0
0.000139224 2.30251e+50 0
0.000161702 1.82707e+50 0
0.000187808 1.43925e+50 0
0.00021813 1.12631e+50 0
0.000253346 8.76175e+49 0
0.000294249 6.7785e+49 0
0.000341755 5.21661e+49 0
0.000396931 3.99379e+49 0
0.000461015 3.04167e+49 0
0.000535445 2.30438e+49 0
0.000621891 1.73671e+49 0
0.000722295 1.30225e+49 0
0.000838908 9.71812e+48 0
0.000974349 7.22049e+48 0
0.00113166 5.34416e+48 0
0.00131436 3.94264e+48 0
0.00152656 2.90116e+48 0
0.00177302 2.13063e+48 0
0.00205928 1.56258e+48 0
0.00239174 1.14491e+48 0
0.00277789 8.38361e+47 0
0.00322637 6.1364e+47 0
0.00374726 4.49024e+47 0
0.00435226 3.28493e+47 0
0.00505493 2.40269e+47 0
0.00587104 1.7571e+47 0
0.0068189 1.28477e+47 0
0.00791981 9.39282e+46 0
0.00919844 6.8661e+46 0
0.0106835 5.01851e+46 0
0.0124084 3.66771e+46 0
0.0144117 2.68024e+46 0
0.0167384 1.95848e+46 0
0.0194408 1.43098e+46 0
0.0225795 1.04549e+46 0
0.0262249 7.63807e+45 0
0.0304589 5.57988e+45 0
0.0353765 4.07611e+45 0
0.041088 2.97749e+45 0
0.0477216 2.17491e+45 0
0.0554261 1.58862e+45 0
0.0643746 1.16035e+45 0
0.0747677 8.47515e+44 0
0.0868389 6.1901e+44 0
0.100859 4.52105e+44 0
0.117143 3.30199e+44 0
0.136055 2.41161e+44 0
0.158021 1.76131e+44 0
0.183533 1.28635e+44 0
0.213164 9.39461e+43 0
0.247579 6.86112e+43 0
0.287551 5.01082e+43 0
0.333975 3.6595e+43 0
0.387895 2.67259e+43 0
0.45052 1.95183e+43 0
0.523256 1.42544e+43 0
0.607735 1.04101e+43 0
0.705853 7.60258e+42 0
0.819813 5.5522e+42 0
0.95217 4.0548e+42 0
1.1059 2.96124e+42 0
1.28444 2.1626e+42 0
1.49181 1.57935e+42 0
1.73266 1.1534e+42 0
2.0124 8.42331e+41 0
2.3373 6.15154e+41 0
2.71465 4.49247e+41 0
3.15293 3.28085e+41 0
3.66197 2.396e+41 0
4.25318 1.7498e+41 0
4.93985 1.27788e+41 0
5.73739 9.33232e+40 0
6.66369 6.81537e+40 0
7.73953 4.97726e+40 0
8.98906 3.63489e+40 0
10.4403 2.65455e+40 0
12.1259 1.93862e+40 0
14.0836 1.41577e+40 0
16.3574 1.03393e+40 0
18.9983 7.55078e+39 0
22.0655 5.51432e+39 0
25.628 4.0271e+39 0
29.7656 2.94098e+39 0
34.5712 2.1478e+39 0
40.1527 1.56853e+39 0
46.6353 1.14549e+39 0
54.1645 8.36551e+38 0
62.9092 6.10932e+38 0
73.0658 4.46162e+38 0
84.8622 3.25832e+38 0
98.563 2.37954e+38 0
114.476 1.73777e+38 0
132.958 1.26909e+38 0
154.424 9.26815e+37 0
179.355 6.76851e+37 0
208.312 4.94303e+37 0
241.944 3.60989e+37 0
281.005 2.6363e+37 0
326.373 1.92528e+37 0
379.066 1.40602e+37 0
440.265 1.02682e+37 0
511.345 7.49883e+36 0
593.901 5.47638e+36 0
689.785 3.99939e+36 0
801.151 2.92074e+36 0
930.496 2.13301e+36 0
