# Light Curve Count Rate
# Time (sec) 	 Rate (c/s)
0.1 8.90955e+51
0.2 8.92229e+51
0.3 8.70605e+51
0.4 8.3211e+51
0.5 7.82113e+51
0.6 7.25091e+51
0.7 6.64604e+51
0.8 6.0336e+51
0.9 5.43337e+51
1 4.85905e+51
1.1 4.31959e+51
1.2 3.82021e+51
1.3 3.36333e+51
1.4 2.94938e+51
1.5 2.57733e+51
1.6 2.24524e+51
1.7 1.95053e+51
1.8 1.6903e+51
1.9 1.46153e+51
2 1.26117e+51
2.1 1.08629e+51
2.2 9.34102e+50
2.3 8.02004e+50
2.4 6.87614e+50
2.5 5.8877e+50
2.6 5.03516e+50
2.7 4.30112e+50
2.8 3.67003e+50
2.9 3.46944e+50
3 2.70694e+50
3.1 2.65924e+50
3.2 4.1058e+50
3.3 7.77249e+50
3.4 1.52287e+51
3.5 2.44845e+51
3.6 3.3351e+51
3.7 4.02067e+51
3.8 4.43704e+51
3.9 4.58944e+51
4 4.52289e+51
4.1 4.29592e+51
4.2 3.96508e+51
4.3 3.57783e+51
4.4 3.17027e+51
4.5 2.76793e+51
4.6 2.38743e+51
4.7 2.03848e+51
4.8 1.72582e+51
4.9 1.45061e+51
5 1.2118e+51
5.1 1.00695e+51
5.2 8.32879e+50
5.3 6.86142e+50
5.4 5.63252e+50
5.5 4.60912e+50
5.6 3.76092e+50
5.7 3.40311e+50
5.8 2.53752e+50
5.9 2.28622e+50
6 1.888e+50
6.1 1.71677e+50
6.2 1.30825e+50
6.3 1.21154e+50
6.4 1.03778e+50
6.5 9.72794e+49
6.6 8.49586e+49
6.7 8.07484e+49
6.8 7.19554e+49
6.9 6.55532e+49
7 6.32122e+49
7.1 5.42493e+49
7.2 5.34637e+49
7.3 1.96351e+50
7.4 5.17574e+50
7.5 5.67489e+50
7.6 6.85963e+50
7.7 8.20004e+50
7.8 9.27333e+50
7.9 1.00319e+51
8 1.05054e+51
8.1 1.07519e+51
8.2 1.0738e+51
8.3 1.0584e+51
8.4 1.03073e+51
8.5 9.9734e+50
8.6 9.53195e+50
8.7 9.11243e+50
8.8 8.55645e+50
8.9 8.03295e+50
9 7.50974e+50
9.1 6.97502e+50
9.2 6.47498e+50
9.3 5.99381e+50
9.4 5.51666e+50
9.5 5.08137e+50
9.6 4.6708e+50
9.7 4.30141e+50
9.8 3.92411e+50
9.9 3.94962e+50
10 4.42771e+49
10.1 9.73419e+48
10.2 9.73428e+48
10.3 6.8639e+48
10.4 4.08247e+48
10.5 0
10.6 0
10.7 0
10.8 0
10.9 0
11 0
11.1 0
11.2 0
11.3 0
11.4 0
11.5 0
11.6 0
11.7 0
11.8 0
11.9 0
12 0
12.1 0
12.2 0
12.3 0
12.4 0
12.5 0
12.6 0
12.7 0
12.8 0
12.9 0
13 0
13.1 0
13.2 0
13.3 0
13.4 0
13.5 0
13.6 0
13.7 0
13.8 0
13.9 0
14 0
14.1 0
14.2 0
14.3 0
14.4 0
14.5 0
14.6 0
14.7 0
14.8 0
14.9 0
