# Light Curve Count Rate
# Time (sec) 	 Rate (c/s)
0 4.86613e+47
0.1 4.89347e+47
0.2 4.91281e+47
0.3 4.92547e+47
0.4 4.93286e+47
0.5 4.93713e+47
0.6 4.93485e+47
0.7 4.93049e+47
0.8 4.92508e+47
0.9 4.91947e+47
1 4.91431e+47
1.1 4.91003e+47
1.2 4.90686e+47
1.3 4.90489e+47
1.4 4.90403e+47
1.5 4.90413e+47
1.6 4.90495e+47
1.7 4.90622e+47
1.8 4.90766e+47
1.9 4.90902e+47
2 4.91005e+47
2.1 4.91052e+47
2.2 4.91023e+47
2.3 4.90894e+47
2.4 4.90637e+47
2.5 4.90216e+47
2.6 4.89585e+47
2.7 4.88686e+47
2.8 4.8745e+47
2.9 4.85796e+47
3 4.8364e+47
3.1 4.80896e+47
3.2 4.77494e+47
3.3 4.73383e+47
3.4 4.68549e+47
3.5 4.63021e+47
3.6 4.56877e+47
3.7 4.50245e+47
3.8 4.43303e+47
3.9 4.36263e+47
4 4.29363e+47
4.1 4.22856e+47
4.2 4.16992e+47
4.3 4.12011e+47
4.4 4.08135e+47
4.5 4.05559e+47
4.6 4.04447e+47
4.7 4.0493e+47
4.8 4.07102e+47
4.9 4.11009e+47
5 4.1664e+47
5.1 4.23914e+47
5.2 4.32656e+47
5.3 4.42577e+47
5.4 4.53247e+47
5.5 4.64081e+47
5.6 4.74341e+47
5.7 4.83177e+47
5.8 4.89714e+47
5.9 4.9318e+47
6 4.93053e+47
6.1 4.89124e+47
6.2 4.81421e+47
6.3 4.69962e+47
6.4 4.54467e+47
6.5 4.34201e+47
6.6 4.08022e+47
6.7 3.74561e+47
6.8 3.32533e+47
6.9 2.81286e+47
7 2.06412e+47
7.1 1.43543e+47
7.2 8.49159e+46
7.3 3.95767e+46
7.4 1.30083e+46
7.5 2.57754e+45
7.6 4.23959e+44
7.7 3.75681e+43
7.8 1.45016e+42
7.9 5.11858e+40
8 1.16011e+39
8.1 7.80119e+36
8.2 1.35587e+35
8.3 1.38549e+34
8.4 8.03543e+31
8.5 4.40011e+30
8.6 1.88287e+29
8.7 6.15714e+27
8.8 1.5015e+26
8.9 2.65873e+24
9 3.32011e+22
9.1 3.32011e+22
9.2 2.83216e+20
9.3 1.99214e+18
9.4 1.59379e+18
9.5 7.11888e+15
9.6 5.69539e+15
9.7 1.54938e+13
9.8 1.23956e+13
9.9 1.23956e+13
10 1.5697e+10
10.1 1.5697e+10
10.2 1.5697e+10
10.3 1.37499e+07
10.4 1.10005e+07
10.5 1.10005e+07
10.6 5047.53
10.7 4038.23
10.8 4038.23
10.9 4038.23
11 0.913867
11.1 0.73113
11.2 0.73113
11.3 0.73113
11.4 7.63797e-05
11.5 7.63797e-05
11.6 6.11068e-05
11.7 6.11068e-05
11.8 6.11068e-05
11.9 2.74031e-09
12 2.74031e-09
12.1 2.19236e-09
12.2 2.19236e-09
12.3 2.19236e-09
12.4 2.19236e-09
12.5 3.89648e-14
12.6 3.89648e-14
12.7 3.89648e-14
12.8 3.11734e-14
12.9 3.11734e-14
13 3.11734e-14
13.1 3.11734e-14
13.2 2.01122e-19
13.3 2.01122e-19
13.4 2.01122e-19
13.5 1.60905e-19
13.6 1.60905e-19
13.7 1.60905e-19
13.8 1.60905e-19
13.9 1.60905e-19
14 3.42163e-25
14.1 3.42163e-25
14.2 3.42163e-25
14.3 3.42163e-25
14.4 2.73744e-25
14.5 2.73744e-25
14.6 2.73744e-25
14.7 2.73744e-25
14.8 2.73744e-25
14.9 1.72514e-31
15 1.72514e-31
15.1 1.72514e-31
15.2 1.72514e-31
15.3 1.72514e-31
15.4 1.38018e-31
15.5 1.38018e-31
15.6 1.38018e-31
15.7 1.38018e-31
15.8 1.38018e-31
15.9 1.38018e-31
16 2.2931e-38
16.1 2.2931e-38
16.2 2.2931e-38
16.3 2.2931e-38
16.4 2.2931e-38
16.5 2.2931e-38
16.6 1.83457e-38
16.7 1.83457e-38
16.8 1.83457e-38
16.9 1.83457e-38
17 1.83457e-38
17.1 1.83457e-38
17.2 7.06439e-46
17.3 7.06439e-46
17.4 7.06439e-46
17.5 7.06439e-46
17.6 7.06439e-46
17.7 7.06439e-46
17.8 7.06439e-46
17.9 7.06439e-46
18 5.6518e-46
18.1 5.6518e-46
18.2 5.6518e-46
18.3 5.6518e-46
18.4 5.6518e-46
18.5 5.6518e-46
18.6 5.6518e-46
18.7 4.37643e-54
18.8 4.37643e-54
18.9 4.37643e-54
19 4.37643e-54
19.1 4.37643e-54
19.2 4.37643e-54
19.3 4.37643e-54
19.4 4.37643e-54
19.5 4.37643e-54
19.6 4.37643e-54
19.7 3.50132e-54
19.8 3.50132e-54
19.9 3.50132e-54
20 3.50132e-54
20.1 3.50132e-54
20.2 3.50132e-54
20.3 3.50132e-54
20.4 4.66242e-63
20.5 4.66242e-63
20.6 4.66242e-63
20.7 4.66242e-63
20.8 4.66242e-63
20.9 4.66242e-63
21 4.66242e-63
21.1 4.66242e-63
21.2 4.66242e-63
21.3 4.66242e-63
21.4 4.66242e-63
21.5 4.66242e-63
21.6 3.73012e-63
21.7 3.73012e-63
21.8 3.73012e-63
21.9 3.73012e-63
22 3.73012e-63
22.1 3.73012e-63
22.2 3.73012e-63
22.3 3.73012e-63
22.4 3.73012e-63
22.5 7.18783e-73
22.6 7.18783e-73
22.7 7.18783e-73
22.8 7.18783e-73
22.9 0
