# Light Curve Count Rate
# Time (sec) 	 Rate (c/s)
0.1 3.13722e+47
0.2 4.5366e+47
0.3 6.58043e+47
0.4 8.81872e+47
0.5 1.07786e+48
0.6 1.22446e+48
0.7 1.32402e+48
0.8 1.38836e+48
0.9 1.42916e+48
1 1.45508e+48
1.1 1.47172e+48
1.2 1.48259e+48
1.3 1.48981e+48
1.4 1.49467e+48
1.5 1.49795e+48
1.6 1.50015e+48
1.7 1.50156e+48
1.8 1.50236e+48
1.9 1.50264e+48
2 1.50244e+48
2.1 1.50175e+48
2.2 1.50047e+48
2.3 1.49845e+48
2.4 1.49543e+48
2.5 1.49097e+48
2.6 1.48439e+48
2.7 1.47455e+48
2.8 1.45956e+48
2.9 1.43634e+48
3 1.39974e+48
3.1 1.34155e+48
3.2 1.24944e+48
3.3 1.10783e+48
3.4 9.04826e+47
3.5 6.49634e+47
3.6 3.90353e+47
3.7 1.94346e+47
3.8 1.03595e+47
3.9 5.68699e+46
4 4.26249e+46
4.1 6.04016e+46
4.2 1.20708e+47
4.3 2.68986e+47
4.4 5.10952e+47
4.5 7.6155e+47
4.6 9.82682e+47
4.7 1.14995e+48
4.8 1.26578e+48
4.9 1.34262e+48
5 1.39287e+48
5.1 1.42579e+48
5.2 1.44758e+48
5.3 1.46219e+48
5.4 1.47208e+48
5.5 1.4788e+48
5.6 1.48331e+48
5.7 1.48621e+48
5.8 1.48786e+48
5.9 1.48845e+48
6 1.48804e+48
6.1 1.4866e+48
6.2 1.48397e+48
6.3 1.47982e+48
6.4 1.47364e+48
6.5 1.46456e+48
6.6 1.45122e+48
6.7 1.43143e+48
6.8 1.40169e+48
6.9 1.35641e+48
7 1.28695e+48
7.1 1.18089e+48
7.2 1.02335e+48
7.3 8.04526e+47
7.4 5.38179e+47
7.5 2.80227e+47
7.6 1.30513e+47
7.7 3.62371e+46
7.8 1.32508e+46
7.9 4.14097e+45
8 1.73341e+45
8.1 1.84577e+45
8.2 6.50516e+45
8.3 3.85039e+46
8.4 1.47608e+47
8.5 3.82482e+47
8.6 6.33457e+47
8.7 8.66474e+47
8.8 1.05026e+48
8.9 1.18271e+48
9 1.27409e+48
9.1 1.33613e+48
9.2 1.37819e+48
9.3 1.40686e+48
9.4 1.4265e+48
9.5 1.43995e+48
9.6 1.44904e+48
9.7 1.4549e+48
9.8 1.45823e+48
9.9 1.45942e+48
10 0
10.1 0
10.2 0
10.3 0
10.4 0
10.5 0
10.6 0
10.7 0
10.8 0
10.9 0
11 0
11.1 0
11.2 0
11.3 0
11.4 0
11.5 0
11.6 0
11.7 0
11.8 0
11.9 0
12 0
12.1 0
12.2 0
12.3 0
12.4 0
12.5 0
12.6 0
12.7 0
12.8 0
12.9 0
13 0
13.1 0
13.2 0
13.3 0
13.4 0
13.5 0
13.6 0
13.7 0
13.8 0
13.9 0
14 0
14.1 0
14.2 0
14.3 0
14.4 0
14.5 0
14.6 0
14.7 0
14.8 0
14.9 0
