# Light Curve Count Rate
# Time (sec) 	 Rate (c/s)
0.1 1.39144e+45
0.12 1.77615e+45
0.14 2.34673e+45
0.16 3.19225e+45
0.18 4.44631e+45
0.2 6.30643e+45
0.22 9.06034e+45
0.24 1.31193e+46
0.26 1.90587e+46
0.28 2.76645e+46
0.3 3.99813e+46
0.32 5.73585e+46
0.34 8.14871e+46
0.36 1.14419e+47
0.38 1.58566e+47
0.4 2.16671e+47
0.42 2.91753e+47
0.44 3.87028e+47
0.46 5.05815e+47
0.48 6.51439e+47
0.5 8.27122e+47
0.52 1.03591e+48
0.54 1.2806e+48
0.56 1.56367e+48
0.58 1.88728e+48
0.6 2.25329e+48
0.62 2.66316e+48
0.64 3.1181e+48
0.66 3.61905e+48
0.68 4.16667e+48
0.7 4.76142e+48
0.72 5.40362e+48
0.74 6.09336e+48
0.76 6.83087e+48
0.78 7.62215e+48
0.8 8.48623e+48
0.82 9.45244e+48
0.84 1.05426e+49
0.86 1.18785e+49
0.88 1.37318e+49
0.9 1.64065e+49
0.92 2.01588e+49
0.94 2.49852e+49
0.96 3.09977e+49
0.98 3.84841e+49
1 4.62299e+49
1.02 5.51673e+49
1.04 6.38136e+49
1.06 7.37051e+49
1.08 8.30666e+49
1.1 9.28454e+49
1.12 1.03087e+50
1.14 1.12765e+50
1.16 1.22437e+50
1.18 1.32615e+50
1.2 1.42337e+50
1.22 1.51725e+50
1.24 1.60971e+50
1.26 1.70061e+50
1.28 1.79017e+50
1.3 1.88151e+50
1.32 1.96592e+50
1.34 2.04812e+50
1.36 2.12811e+50
1.38 2.20568e+50
1.4 2.28079e+50
1.42 2.35336e+50
1.44 2.42343e+50
1.46 2.49089e+50
1.48 2.5557e+50
1.5 2.61795e+50
1.52 2.67756e+50
1.54 2.73437e+50
1.56 2.78843e+50
1.58 2.83982e+50
1.6 2.88835e+50
1.62 2.9341e+50
1.64 2.97716e+50
1.66 3.01734e+50
1.68 3.05472e+50
1.7 3.08986e+50
1.72 3.12638e+50
1.74 3.15576e+50
1.76 3.18234e+50
1.78 3.20604e+50
1.8 3.22696e+50
1.82 3.24504e+50
1.84 3.26209e+50
1.86 3.28097e+50
1.88 3.29092e+50
1.9 3.29803e+50
1.92 3.30234e+50
1.94 3.30782e+50
1.96 3.31286e+50
1.98 3.30916e+50
2 3.30271e+50
2.02 3.29931e+50
2.04 3.29339e+50
2.06 3.27916e+50
2.08 3.26467e+50
2.1 3.2564e+50
2.12 3.23539e+50
2.14 3.21492e+50
2.16 3.19968e+50
2.18 3.17163e+50
2.2 3.14921e+50
2.22 3.12295e+50
2.24 3.0901e+50
2.26 3.06612e+50
2.28 3.02703e+50
2.3 2.99987e+50
2.32 2.95834e+50
2.34 2.92646e+50
2.36 2.88243e+50
2.38 2.84927e+50
2.4 2.8022e+50
2.42 2.76746e+50
2.44 2.71983e+50
2.46 2.67811e+50
2.48 2.63338e+50
2.5 2.58391e+50
2.52 2.54278e+50
2.54 2.49271e+50
2.56 2.44216e+50
2.58 2.39762e+50
2.6 2.34766e+50
2.62 2.29778e+50
2.64 2.24826e+50
2.66 2.20207e+50
2.68 2.15145e+50
2.7 2.10104e+50
2.72 2.05087e+50
2.74 2.00097e+50
2.76 1.95273e+50
2.78 1.90511e+50
2.8 1.85643e+50
2.82 1.80846e+50
2.84 1.76097e+50
2.86 1.714e+50
2.88 1.6676e+50
2.9 1.6218e+50
2.92 1.57755e+50
2.94 1.53437e+50
2.96 1.49135e+50
2.98 1.44908e+50
3 1.4076e+50
3.02 1.36812e+50
3.04 1.32902e+50
3.06 1.29072e+50
3.08 1.25372e+50
3.1 1.21717e+50
3.12 1.18159e+50
3.14 1.14701e+50
3.16 1.11346e+50
3.18 1.08258e+50
3.2 1.05256e+50
3.22 1.02226e+50
3.24 9.9303e+49
3.26 9.65513e+49
3.28 9.38614e+49
3.3 9.12681e+49
3.32 8.8936e+49
3.34 8.65928e+49
3.36 8.42734e+49
3.38 8.20784e+49
3.4 8.00798e+49
3.42 7.81341e+49
3.44 7.62206e+49
3.46 7.43606e+49
3.48 7.25516e+49
3.5 7.08639e+49
3.52 6.92844e+49
3.54 6.77703e+49
3.56 6.62102e+49
3.58 6.47162e+49
3.6 6.34076e+49
3.62 6.20233e+49
3.64 6.06632e+49
3.66 5.93265e+49
3.68 5.80837e+49
3.7 5.69482e+49
3.72 5.57328e+49
3.74 5.45397e+49
3.76 5.35357e+49
3.78 5.24196e+49
3.8 5.13205e+49
3.82 5.02586e+49
3.84 4.92121e+49
3.86 4.83641e+49
3.88 4.73721e+49
3.9 4.64188e+49
3.92 4.54806e+49
3.94 4.46211e+49
3.96 4.38701e+49
3.98 4.31107e+49
4 4.22717e+49
4.02 4.1445e+49
4.04 4.06399e+49
4.06 3.98644e+49
4.08 3.91901e+49
4.1 3.8493e+49
4.12 3.78518e+49
4.14 3.73155e+49
4.16 3.66234e+49
4.18 3.59453e+49
4.2 3.52797e+49
4.22 3.46537e+49
4.24 3.413e+49
4.26 3.35098e+49
4.28 3.29122e+49
4.3 3.23248e+49
4.32 3.17579e+49
4.34 3.13073e+49
4.36 3.07616e+49
4.38 3.03242e+49
4.4 2.98138e+49
4.42 2.93108e+49
4.44 2.88156e+49
4.46 2.83473e+49
4.48 2.79882e+49
4.5 2.75459e+49
4.52 2.71227e+49
4.54 2.67236e+49
4.56 2.64039e+49
4.58 2.61414e+49
4.6 2.58936e+49
4.62 2.56108e+49
4.64 2.53646e+49
4.66 2.5151e+49
4.68 2.50526e+49
4.7 2.49385e+49
4.72 2.48454e+49
4.74 2.47923e+49
4.76 2.48211e+49
4.78 2.49233e+49
4.8 2.51096e+49
4.82 2.53225e+49
4.84 2.56821e+49
4.86 2.64386e+49
4.88 2.79918e+49
4.9 3.05443e+49
4.92 3.43857e+49
4.94 3.95034e+49
4.96 4.60446e+49
4.98 5.38785e+49
5 6.21932e+49
5.02 7.19702e+49
5.04 8.16332e+49
5.06 9.21722e+49
5.08 1.01661e+50
5.1 1.11932e+50
5.12 1.21357e+50
5.14 1.30393e+50
5.16 1.40044e+50
5.18 1.48848e+50
5.2 1.57259e+50
5.22 1.65463e+50
5.24 1.74097e+50
5.26 1.81963e+50
5.28 1.89474e+50
5.3 1.96756e+50
5.32 2.03884e+50
5.34 2.10782e+50
5.36 2.17752e+50
5.38 2.24344e+50
5.4 2.30618e+50
5.42 2.36654e+50
5.44 2.42497e+50
5.46 2.48093e+50
5.48 2.53545e+50
5.5 2.58799e+50
5.52 2.63844e+50
5.54 2.68695e+50
5.56 2.73338e+50
5.58 2.77874e+50
5.6 2.82147e+50
5.62 2.86247e+50
5.64 2.90164e+50
5.66 2.939e+50
5.68 2.97485e+50
5.7 3.0081e+50
5.72 3.03981e+50
5.74 3.06989e+50
5.76 3.09782e+50
5.78 3.12813e+50
5.8 3.15259e+50
5.82 3.1751e+50
5.84 3.19587e+50
5.86 3.21441e+50
5.88 3.23107e+50
5.9 3.24644e+50
5.92 3.26479e+50
5.94 3.27855e+50
5.96 3.28782e+50
5.98 3.29553e+50
6 3.30095e+50
6.02 3.31048e+50
6.04 3.31601e+50
6.06 3.31639e+50
6.08 3.31427e+50
6.1 3.31716e+50
6.12 3.31662e+50
6.14 3.30943e+50
6.16 3.30261e+50
6.18 3.30205e+50
6.2 3.2899e+50
6.22 3.27823e+50
6.24 3.27369e+50
6.26 3.25607e+50
6.28 3.24558e+50
6.3 3.23207e+50
6.32 3.21037e+50
6.34 3.2004e+50
6.36 3.17249e+50
6.38 3.15673e+50
6.4 3.12712e+50
6.42 3.10628e+50
6.44 3.07421e+50
6.46 3.05083e+50
6.48 3.01417e+50
6.5 2.99095e+50
6.52 2.95185e+50
6.54 2.9221e+50
6.56 2.88634e+50
6.58 2.84675e+50
6.6 2.81704e+50
6.62 2.77574e+50
6.64 2.73465e+50
6.66 2.70202e+50
6.68 2.66e+50
6.7 2.61797e+50
6.72 2.5767e+50
6.74 2.53977e+50
6.76 2.49709e+50
6.78 2.45436e+50
6.8 2.41167e+50
6.82 2.36888e+50
6.84 2.32733e+50
6.86 2.28663e+50
6.88 2.24384e+50
6.9 2.20114e+50
6.92 2.15881e+50
6.94 2.11638e+50
6.96 2.07441e+50
6.98 2.03276e+50
7 1.99142e+50
7.02 1.95022e+50
7.04 1.90976e+50
7.06 1.86935e+50
7.08 1.82955e+50
7.1 1.79182e+50
7.12 1.75366e+50
7.14 1.71558e+50
7.16 1.67811e+50
7.18 1.64111e+50
7.2 1.60514e+50
7.22 1.57139e+50
7.24 1.53732e+50
7.26 1.50341e+50
7.28 1.47005e+50
7.3 1.43898e+50
7.32 1.40828e+50
7.34 1.37726e+50
7.36 1.34723e+50
7.38 1.31952e+50
7.4 1.29039e+50
7.42 1.26271e+50
7.44 1.23666e+50
7.46 1.20956e+50
7.48 1.18438e+50
7.5 1.15915e+50
7.52 1.13442e+50
7.54 1.1111e+50
7.56 1.08715e+50
7.58 1.06503e+50
7.6 1.04244e+50
7.62 1.02112e+50
7.64 9.99785e+49
7.66 9.79428e+49
7.68 9.5911e+49
7.7 9.39785e+49
7.72 9.20542e+49
7.74 9.02148e+49
7.76 8.83779e+49
7.78 8.66478e+49
7.8 8.49071e+49
7.82 8.32475e+49
7.84 8.16108e+49
7.86 8.00144e+49
7.88 7.8464e+49
7.9 7.69461e+49
7.92 7.54874e+49
7.94 7.40446e+49
7.96 7.2648e+49
7.98 7.12864e+49
8 6.99347e+49
8.02 6.86583e+49
8.04 6.73765e+49
8.06 6.61428e+49
8.08 6.49544e+49
8.1 6.37666e+49
8.12 6.26222e+49
8.14 6.15004e+49
8.16 6.04157e+49
8.18 5.93344e+49
8.2 5.83056e+49
8.22 5.72977e+49
8.24 5.62889e+49
8.26 5.53299e+49
8.28 5.43773e+49
8.3 5.34528e+49
8.32 5.25373e+49
8.34 5.16693e+49
8.36 5.0807e+49
8.38 4.99482e+49
8.4 4.9141e+49
8.42 4.83207e+49
8.44 4.75333e+49
8.46 4.67736e+49
8.48 4.60094e+49
8.5 4.52745e+49
8.52 4.45481e+49
8.54 4.38534e+49
8.56 4.31751e+49
8.58 4.24922e+49
8.6 4.18469e+49
8.62 4.12059e+49
8.64 4.05965e+49
8.66 4.00139e+49
8.68 3.94394e+49
8.7 3.88996e+49
8.72 3.83713e+49
8.74 3.78941e+49
8.76 3.74405e+49
8.78 3.70107e+49
8.8 3.66684e+49
8.82 3.64099e+49
8.84 3.63788e+49
8.86 3.69384e+49
8.88 3.84157e+49
8.9 4.12209e+49
8.92 4.55155e+49
8.94 5.11116e+49
8.96 5.75559e+49
8.98 6.46525e+49
9 7.17088e+49
9.02 7.94907e+49
9.04 8.67573e+49
9.06 9.46551e+49
9.08 1.01712e+50
9.1 1.09411e+50
9.12 1.16433e+50
9.14 1.2313e+50
9.16 1.30344e+50
9.18 1.36825e+50
9.2 1.43024e+50
9.22 1.4908e+50
9.24 1.55458e+50
9.26 1.61238e+50
9.28 1.66754e+50
9.3 1.72114e+50
9.32 1.77352e+50
9.34 1.82396e+50
9.36 1.87557e+50
9.38 1.92457e+50
9.4 1.97071e+50
9.42 2.01514e+50
9.44 2.05863e+50
9.46 2.10033e+50
9.48 2.14141e+50
9.5 2.18061e+50
9.52 2.21885e+50
9.54 2.25559e+50
9.56 2.29094e+50
9.58 2.32559e+50
9.6 2.35855e+50
9.62 2.39053e+50
9.64 2.421e+50
9.66 2.45015e+50
9.68 2.4784e+50
9.7 2.50488e+50
9.72 2.53028e+50
9.74 2.55461e+50
9.76 2.57731e+50
9.78 2.60263e+50
9.8 2.62342e+50
9.82 2.64243e+50
9.84 2.66027e+50
9.86 2.67688e+50
9.88 2.69175e+50
9.9 2.70543e+50
9.92 2.72208e+50
9.94 2.73536e+50
9.96 2.74488e+50
9.98 2.75344e+50
10 2.5312e+50
10.02 2.54262e+50
10.04 2.55139e+50
10.06 2.5555e+50
10.08 2.55821e+50
10.1 2.56607e+50
10.12 2.57094e+50
10.14 2.57033e+50
10.16 2.57046e+50
10.18 2.55439e+50
10.2 2.45811e+50
10.22 2.36461e+50
10.24 2.27589e+50
10.26 2.19188e+50
10.28 2.11232e+50
10.3 2.03624e+50
10.32 1.96414e+50
10.34 1.89543e+50
10.36 1.82987e+50
10.38 1.76774e+50
10.4 1.70832e+50
10.42 1.65163e+50
10.44 1.59763e+50
10.46 1.5461e+50
10.48 1.49663e+50
10.5 1.44937e+50
10.52 1.40435e+50
10.54 1.36096e+50
10.56 1.31966e+50
10.58 1.28014e+50
10.6 1.24215e+50
10.62 1.20563e+50
10.64 1.17077e+50
10.66 1.13702e+50
10.68 1.1047e+50
10.7 1.07384e+50
10.72 1.0439e+50
10.74 1.01536e+50
10.76 9.87921e+49
10.78 9.61397e+49
10.8 9.35788e+49
10.82 9.11306e+49
10.84 8.8744e+49
10.86 8.64682e+49
10.88 8.42615e+49
10.9 8.21463e+49
10.92 8.00776e+49
10.94 7.81087e+49
10.96 7.62068e+49
10.98 7.43419e+49
11 7.25678e+49
11.02 7.08365e+49
11.04 6.91671e+49
11.06 6.7548e+49
11.08 6.5997e+49
11.1 6.4468e+49
11.12 6.30156e+49
11.14 6.16095e+49
11.16 6.02452e+49
11.18 5.88992e+49
11.2 5.76204e+49
11.22 5.63624e+49
11.24 5.51509e+49
11.26 5.39692e+49
11.28 5.28366e+49
11.3 5.17224e+49
11.32 5.06485e+49
11.34 4.96129e+49
11.36 4.86082e+49
11.38 4.76079e+49
11.4 4.66587e+49
11.42 4.5721e+49
11.44 4.48268e+49
11.46 4.39298e+49
11.48 4.30835e+49
11.5 4.22452e+49
11.52 4.1435e+49
11.54 4.06556e+49
11.56 3.98984e+49
11.58 3.91424e+49
11.6 3.84233e+49
11.62 3.7708e+49
11.64 3.70251e+49
11.66 3.63436e+49
11.68 3.56978e+49
11.7 3.50494e+49
11.72 3.44341e+49
11.74 3.3811e+49
11.76 3.32256e+49
11.78 3.2655e+49
11.8 3.21004e+49
11.82 3.15319e+49
11.84 3.10019e+49
11.86 3.04702e+49
11.88 2.99568e+49
11.9 2.94478e+49
11.92 2.89689e+49
11.94 2.84819e+49
11.96 2.80148e+49
11.98 2.75686e+49
12 2.713e+49
12.02 2.66849e+49
12.04 2.62609e+49
12.06 2.58348e+49
12.08 2.54347e+49
12.1 2.50218e+49
12.12 2.46391e+49
12.14 2.42481e+49
12.16 2.38847e+49
12.18 2.35025e+49
12.2 2.31521e+49
12.22 2.28117e+49
12.24 2.24761e+49
12.26 2.21237e+49
12.28 2.18044e+49
12.3 2.14896e+49
12.32 2.11653e+49
12.34 2.08586e+49
12.36 2.05465e+49
12.38 2.02566e+49
12.4 1.99584e+49
12.42 1.96738e+49
12.44 1.93846e+49
12.46 1.91197e+49
12.48 1.88581e+49
12.5 1.8595e+49
12.52 1.83295e+49
12.54 1.80841e+49
12.56 1.78257e+49
12.58 1.75845e+49
12.6 1.7353e+49
12.62 1.71084e+49
12.64 1.68843e+49
12.66 1.66425e+49
12.68 1.64272e+49
12.7 1.62e+49
12.72 1.59907e+49
12.74 1.57817e+49
12.76 1.55828e+49
12.78 1.53696e+49
12.8 1.51742e+49
12.82 1.49856e+49
12.84 1.478e+49
12.86 1.45945e+49
12.88 1.43958e+49
12.9 1.42221e+49
12.92 1.4029e+49
12.94 1.38548e+49
12.96 1.3669e+49
12.98 1.35056e+49
13 1.3345e+49
13.02 1.31836e+49
13.04 1.30226e+49
13.06 1.28541e+49
13.08 1.27058e+49
13.1 1.25307e+49
13.12 1.23862e+49
13.14 1.22229e+49
13.16 1.20836e+49
13.18 1.19249e+49
13.2 1.1785e+49
13.22 1.16453e+49
13.24 1.14912e+49
13.26 1.13603e+49
13.28 1.12196e+49
13.3 1.10875e+49
13.32 1.09581e+49
13.34 1.08391e+49
13.36 1.07002e+49
13.38 1.05849e+49
13.4 1.04631e+49
13.42 1.0326e+49
13.44 1.0207e+49
13.46 1.0079e+49
13.48 9.97216e+48
13.5 9.84214e+48
13.52 9.73992e+48
13.54 9.62399e+48
13.56 9.49852e+48
13.58 9.40142e+48
13.6 9.30437e+48
13.62 9.20884e+48
13.64 9.08632e+48
13.66 8.98396e+48
13.68 8.89296e+48
13.7 8.77891e+48
13.72 8.69063e+48
13.74 8.58402e+48
13.76 8.48931e+48
13.78 8.37878e+48
13.8 8.29591e+48
13.82 8.20459e+48
13.84 8.10524e+48
13.86 8.02598e+48
13.88 7.92258e+48
13.9 7.84622e+48
13.92 7.75924e+48
13.94 7.68217e+48
13.96 7.59783e+48
13.98 7.51027e+48
14 7.43975e+48
14.02 7.34335e+48
14.04 7.27423e+48
14.06 7.19177e+48
14.08 7.09843e+48
14.1 7.03242e+48
14.12 6.95281e+48
14.14 6.88972e+48
14.16 6.81484e+48
14.18 6.73798e+48
14.2 6.66554e+48
14.22 6.57753e+48
14.24 6.51835e+48
14.26 6.46074e+48
14.28 6.40277e+48
14.3 6.3335e+48
14.32 6.26351e+48
14.34 6.19226e+48
14.36 6.11031e+48
14.38 6.05789e+48
14.4 5.99217e+48
14.42 5.92518e+48
14.44 5.8749e+48
14.46 5.82086e+48
14.48 5.74342e+48
14.5 5.68235e+48
14.52 5.61932e+48
14.54 5.55844e+48
14.56 5.50921e+48
14.58 5.44841e+48
14.6 5.40236e+48
14.62 5.34487e+48
14.64 5.30043e+48
14.66 5.22928e+48
14.68 5.17084e+48
14.7 5.1285e+48
14.72 5.05869e+48
14.74 5.01761e+48
14.76 4.97718e+48
14.78 4.9198e+48
14.8 4.8669e+48
14.82 4.8141e+48
14.84 4.76196e+48
14.86 4.72386e+48
14.88 4.65959e+48
14.9 4.61996e+48
14.92 4.56995e+48
14.94 4.52078e+48
14.96 4.48497e+48
14.98 0
