# Light Curve Count Rate
# Time (sec) 	 Rate (c/s)
0.1 3.91217e+45
0.2 1.84736e+46
0.3 9.42388e+46
0.4 3.79617e+47
0.5 1.12455e+48
0.6 2.56226e+48
0.7 4.81829e+48
0.8 7.9277e+48
0.9 1.1874e+49
1 1.65973e+49
1.1 2.19826e+49
1.2 2.78487e+49
1.3 3.39466e+49
1.4 3.99702e+49
1.5 4.55785e+49
1.6 5.04252e+49
1.7 5.41924e+49
1.8 5.66233e+49
1.9 5.7549e+49
2 5.69068e+49
2.1 5.47461e+49
2.2 5.12234e+49
2.3 4.65828e+49
2.4 4.11315e+49
2.5 3.52074e+49
2.6 2.9146e+49
2.7 2.32527e+49
2.8 1.77798e+49
2.9 1.2916e+49
3 8.78623e+48
3.1 5.46243e+48
3.2 2.97833e+48
3.3 1.32988e+48
3.4 4.37377e+47
3.5 9.21206e+46
3.6 1.09278e+46
3.7 7.31884e+44
3.8 3.90363e+43
3.9 4.01066e+42
4 2.53262e+42
4.1 1.28594e+43
4.2 1.95924e+44
4.3 3.16847e+45
4.4 3.23658e+46
4.5 1.87313e+47
4.6 6.6715e+47
4.7 1.66711e+48
4.8 3.2756e+48
4.9 5.48161e+48
5 8.2196e+48
5.1 1.13912e+49
5.2 1.48673e+49
5.3 1.8488e+49
5.4 2.2065e+49
5.5 2.53937e+49
5.6 2.82685e+49
5.7 3.05017e+49
5.8 3.19424e+49
5.9 3.24908e+49
6 3.21103e+49
6.1 3.08301e+49
6.2 2.87417e+49
6.3 2.59895e+49
6.4 2.27544e+49
6.5 1.92367e+49
6.6 1.56374e+49
6.7 1.21426e+49
6.8 8.91304e+48
6.9 6.07953e+48
7 3.7448e+48
7.1 1.9848e+48
7.2 8.34711e+47
7.3 2.4456e+47
7.4 4.12883e+46
7.5 3.17143e+45
7.6 8.90185e+43
7.7 8.90076e+41
7.8 5.38462e+39
7.9 8.66937e+37
8 3.61863e+37
8.1 7.34942e+38
8.2 9.0048e+40
8.3 1.07353e+43
8.4 5.43919e+44
8.5 1.01471e+46
8.6 8.11172e+46
8.7 3.45934e+47
8.8 9.57701e+47
8.9 1.99227e+48
9 3.43245e+48
9.1 5.20469e+48
9.2 7.20865e+48
9.3 9.32859e+48
9.4 1.14393e+49
9.5 1.34109e+49
9.6 1.51163e+49
9.7 1.64423e+49
9.8 1.72976e+49
9.9 1.76232e+49
10 0
10.1 0
10.2 0
10.3 0
10.4 0
10.5 0
10.6 0
10.7 0
10.8 0
10.9 0
11 0
11.1 0
11.2 0
11.3 0
11.4 0
11.5 0
11.6 0
11.7 0
11.8 0
11.9 0
12 0
12.1 0
12.2 0
12.3 0
12.4 0
12.5 0
12.6 0
12.7 0
12.8 0
12.9 0
13 0
13.1 0
13.2 0
13.3 0
13.4 0
13.5 0
13.6 0
13.7 0
13.8 0
13.9 0
14 0
14.1 0
14.2 0
14.3 0
14.4 0
14.5 0
14.6 0
14.7 0
14.8 0
14.9 0
