# Light Curve Count Rate
# Time (sec) 	 Rate (c/s)
0.1 0
0.2 0
0.3 0
0.4 0
0.5 0
0.6 0
0.7 0
0.8 0
0.9 0
1 1.55948e+49
1.1 6.8428e+49
1.2 1.16853e+50
1.3 1.59008e+50
1.4 1.92654e+50
1.5 2.19497e+50
1.6 2.4006e+50
1.7 2.5574e+50
1.8 2.65698e+50
1.9 2.71041e+50
2 2.7184e+50
2.1 2.69312e+50
2.2 2.62238e+50
2.3 2.52105e+50
2.4 2.37916e+50
2.5 2.20961e+50
2.6 2.02073e+50
2.7 1.8234e+50
2.8 1.62547e+50
2.9 1.43925e+50
3 1.26653e+50
3.1 1.1135e+50
3.2 9.81558e+49
3.3 8.68982e+49
3.4 7.73519e+49
3.5 6.90497e+49
3.6 6.18867e+49
3.7 5.56812e+49
3.8 5.02529e+49
3.9 4.54997e+49
4 4.13202e+49
4.1 3.76176e+49
4.2 3.43264e+49
4.3 3.14156e+49
4.4 2.88437e+49
4.5 2.64923e+49
4.6 2.44438e+49
4.7 2.2548e+49
4.8 2.0886e+49
4.9 1.93346e+49
5 1.79896e+49
5.1 1.67157e+49
5.2 1.55908e+49
5.3 1.45556e+49
5.4 1.35763e+49
5.5 1.26848e+49
5.6 1.18675e+49
5.7 1.10843e+49
5.8 1.03997e+49
5.9 9.73878e+48
6 9.14113e+48
6.1 8.55711e+48
6.2 8.06566e+48
6.3 7.59103e+48
6.4 7.11391e+48
6.5 6.70096e+48
6.6 6.32632e+48
6.7 5.93725e+48
6.8 5.601e+48
6.9 5.28649e+48
7 4.99198e+48
7.1 4.7301e+48
7.2 4.43497e+48
7.3 4.19111e+48
7.4 3.96181e+48
7.5 3.746e+48
7.6 3.55071e+48
7.7 3.3645e+48
7.8 3.18308e+48
7.9 3.01173e+48
8 2.81404e+48
8.1 2.66114e+48
8.2 2.52322e+48
8.3 2.39127e+48
8.4 2.26097e+48
8.5 2.13738e+48
8.6 2.02011e+48
8.7 1.90875e+48
8.8 1.80297e+48
8.9 1.70991e+48
9 1.61699e+48
9.1 1.52573e+48
9.2 1.43888e+48
9.3 1.35618e+48
9.4 1.27743e+48
9.5 1.20241e+48
9.6 1.16087e+48
9.7 1.10159e+48
9.8 1.03595e+48
9.9 9.73345e+47
10 9.13632e+47
10.1 8.56666e+47
10.2 8.02336e+47
10.3 7.7658e+47
10.4 7.26678e+47
10.5 6.84591e+47
10.6 6.44023e+47
10.7 6.00493e+47
10.8 5.82261e+47
10.9 5.42219e+47
11 5.04028e+47
11.1 4.67809e+47
11.2 4.54164e+47
11.3 4.20971e+47
11.4 3.93868e+47
11.5 3.70574e+47
11.6 3.60271e+47
11.7 3.32892e+47
11.8 3.07088e+47
11.9 2.988e+47
12 2.75277e+47
12.1 2.6799e+47
12.2 2.4657e+47
12.3 2.2653e+47
12.4 2.24809e+47
12.5 2.13098e+47
12.6 2.0781e+47
12.7 1.91225e+47
12.8 1.86573e+47
12.9 1.71646e+47
13 1.57895e+47
13.1 1.54173e+47
13.2 1.41912e+47
13.3 1.38633e+47
13.4 1.27754e+47
13.5 1.28822e+47
13.6 1.25723e+47
13.7 1.23007e+47
13.8 1.2037e+47
13.9 1.12014e+47
14 1.09662e+47
14.1 1.02361e+47
14.2 1.00257e+47
14.3 9.39157e+46
14.4 9.2024e+46
14.5 9.01824e+46
14.6 8.48401e+46
14.7 8.65756e+46
14.8 8.89523e+46
14.9 0
