# Light Curve Count Rate
# Time (sec) 	 Rate (c/s)
0.1 5.98884e+47
0.2 7.44074e+47
0.3 9.99522e+47
0.4 1.40341e+48
0.5 2.00496e+48
0.6 2.85972e+48
0.7 4.10847e+48
0.8 9.54128e+48
0.9 2.23831e+49
1 5.43418e+49
1.1 1.00838e+50
1.2 1.45779e+50
1.3 1.86969e+50
1.4 2.20982e+50
1.5 2.48814e+50
1.6 2.70516e+50
1.7 2.87147e+50
1.8 2.97631e+50
1.9 3.02924e+50
2 3.03019e+50
2.1 2.99126e+50
2.2 2.90084e+50
2.3 2.77485e+50
2.4 2.60473e+50
2.5 2.40524e+50
2.6 2.18592e+50
2.7 1.95911e+50
2.8 1.73403e+50
2.9 1.52382e+50
3 1.33075e+50
3.1 1.16113e+50
3.2 1.01618e+50
3.3 8.99303e+49
3.4 8.02882e+49
3.5 7.13368e+49
3.6 6.37108e+49
3.7 5.718e+49
3.8 5.15267e+49
3.9 4.77725e+49
4 4.3642e+49
4.1 3.97709e+49
4.2 3.664e+49
4.3 3.48803e+49
4.4 3.2798e+49
4.5 3.14123e+49
4.6 2.95364e+49
4.7 2.84979e+49
4.8 3.2395e+49
4.9 4.74512e+49
5 8.42231e+49
5.1 1.30782e+50
5.2 1.74128e+50
5.3 2.10303e+50
5.4 2.40711e+50
5.5 2.66218e+50
5.6 2.86933e+50
5.7 3.02741e+50
5.8 3.14569e+50
5.9 3.2332e+50
6 3.26385e+50
6.1 3.26994e+50
6.2 3.24318e+50
6.3 3.17255e+50
6.4 3.08633e+50
6.5 2.97048e+50
6.6 2.82308e+50
6.7 2.66399e+50
6.8 2.48157e+50
6.9 2.29262e+50
7 2.09939e+50
7.1 1.91154e+50
7.2 1.72988e+50
7.3 1.56977e+50
7.4 1.41641e+50
7.5 1.28114e+50
7.6 1.16206e+50
7.7 1.06226e+50
7.8 9.69372e+49
7.9 8.92557e+49
8 8.19657e+49
8.1 7.60067e+49
8.2 7.0325e+49
8.3 6.5508e+49
8.4 6.13083e+49
8.5 5.7412e+49
8.6 5.43187e+49
8.7 5.14449e+49
8.8 5.31432e+49
8.9 6.71786e+49
9 1.01003e+50
9.1 1.39378e+50
9.2 1.72554e+50
9.3 2.00184e+50
9.4 2.23378e+50
9.5 2.42653e+50
9.6 2.58419e+50
9.7 2.71282e+50
9.8 2.81042e+50
9.9 2.88557e+50
10 2.82375e+50
10.1 2.83936e+50
10.2 2.51208e+50
10.3 2.11323e+50
10.4 1.79867e+50
10.5 1.54668e+50
10.6 1.34692e+50
10.7 1.18229e+50
10.8 1.04838e+50
10.9 9.38205e+49
11 8.42114e+49
11.1 7.60683e+49
11.2 6.9226e+49
11.3 6.3311e+49
11.4 5.81301e+49
11.5 5.36251e+49
11.6 4.97605e+49
11.7 4.62772e+49
11.8 4.32422e+49
11.9 4.05213e+49
12 3.81254e+49
12.1 3.59448e+49
12.2 3.40074e+49
12.3 3.2227e+49
12.4 3.06433e+49
12.5 2.92419e+49
12.6 2.79151e+49
12.7 2.66901e+49
12.8 2.558e+49
12.9 2.45764e+49
13 2.36382e+49
13.1 2.27634e+49
13.2 2.19311e+49
13.3 2.11776e+49
13.4 2.05057e+49
13.5 1.98912e+49
13.6 1.92239e+49
13.7 1.865e+49
13.8 1.81103e+49
13.9 1.76428e+49
14 1.71911e+49
14.1 1.67339e+49
14.2 1.62833e+49
14.3 1.59031e+49
14.4 1.54946e+49
14.5 1.51573e+49
14.6 1.48749e+49
14.7 1.45217e+49
14.8 1.4214e+49
14.9 0
