# Light Curve Count Rate
# Time (sec) 	 Rate (c/s)
0 6.79228e+47
0.1 8.92586e+47
0.2 1.53908e+48
0.3 2.74742e+48
0.4 4.39415e+48
0.5 6.09627e+48
0.6 7.52184e+48
0.7 8.56258e+48
0.8 9.26569e+48
0.9 9.72389e+48
1 1.00195e+49
1.1 1.02112e+49
1.2 1.0337e+49
1.3 1.04209e+49
1.4 1.04774e+49
1.5 1.05157e+49
1.6 1.05415e+49
1.7 1.05582e+49
1.8 1.0568e+49
1.9 1.0572e+49
2 1.05706e+49
2.1 1.05637e+49
2.2 1.05507e+49
2.3 1.05297e+49
2.4 1.04984e+49
2.5 1.04522e+49
2.6 1.03842e+49
2.7 1.02832e+49
2.8 1.0131e+49
2.9 9.89779e+48
3 9.53616e+48
3.1 8.9733e+48
3.2 8.10855e+48
3.3 6.83617e+48
3.4 5.13063e+48
3.5 3.20196e+48
3.6 1.54095e+48
3.7 5.56473e+47
3.8 1.71147e+47
3.9 6.44753e+46
4 4.7475e+46
4.1 8.08207e+46
4.2 2.32922e+47
4.3 7.19726e+47
4.4 1.80722e+48
4.5 3.45146e+48
4.6 5.24246e+48
4.7 6.79377e+48
4.8 7.96218e+48
4.9 8.77832e+48
5 9.32914e+48
5.1 9.69707e+48
5.2 9.94365e+48
5.3 1.01102e+49
5.4 1.02236e+49
5.5 1.03011e+49
5.6 1.03534e+49
5.7 1.03875e+49
5.8 1.04074e+49
5.9 1.04155e+49
6 1.04127e+49
6.1 1.03986e+49
6.2 1.0372e+49
6.3 1.03295e+49
6.4 1.02659e+49
6.5 1.01729e+49
6.6 1.00371e+49
6.7 9.83777e+48
6.8 9.54205e+48
6.9 9.09993e+48
7 8.43855e+48
7.1 7.46418e+48
7.2 6.09154e+48
7.3 4.33454e+48
7.4 2.45646e+48
7.5 9.76805e+47
7.6 2.39104e+47
7.7 3.47354e+46
7.8 3.78136e+45
7.9 5.96772e+44
8 5.39557e+44
8.1 1.09188e+45
8.2 6.7315e+45
8.3 5.61783e+46
8.4 3.23058e+47
8.5 1.12757e+48
8.6 2.55999e+48
8.7 4.27872e+48
8.8 5.872e+48
8.9 7.14085e+48
9 8.07192e+48
9.1 8.72907e+48
9.2 9.18561e+48
9.3 9.50191e+48
9.4 9.72122e+48
9.5 9.87266e+48
9.6 9.97604e+48
9.7 1.00435e+49
9.8 1.00832e+49
9.9 1.00994e+49
10 0
10.1 0
10.2 0
10.3 0
10.4 0
10.5 0
10.6 0
10.7 0
10.8 0
10.9 0
11 0
11.1 0
11.2 0
11.3 0
11.4 0
11.5 0
11.6 0
11.7 0
11.8 0
11.9 0
12 0
12.1 0
12.2 0
12.3 0
12.4 0
12.5 0
12.6 0
12.7 0
12.8 0
12.9 0
13 0
13.1 0
13.2 0
13.3 0
13.4 0
13.5 0
13.6 0
13.7 0
13.8 0
13.9 0
14 0
14.1 0
14.2 0
14.3 0
14.4 0
14.5 0
14.6 0
14.7 0
14.8 0
14.9 0
15 0
15.1 0
15.2 0
15.3 0
15.4 0
15.5 0
15.6 0
15.7 0
15.8 0
15.9 0
16 0
16.1 0
16.2 0
16.3 0
16.4 0
16.5 0
16.6 0
16.7 0
16.8 0
16.9 0
17 0
17.1 0
17.2 0
17.3 0
17.4 0
17.5 0
17.6 0
17.7 0
17.8 0
17.9 0
18 0
18.1 0
18.2 0
18.3 0
18.4 0
18.5 0
18.6 0
18.7 0
18.8 0
18.9 0
19 0
19.1 0
19.2 0
19.3 0
19.4 0
19.5 0
19.6 0
19.7 0
19.8 0
19.9 0
20 0
20.1 0
20.2 0
20.3 0
20.4 0
20.5 0
20.6 0
20.7 0
20.8 0
20.9 0
21 0
21.1 0
21.2 0
21.3 0
21.4 0
21.5 0
21.6 0
21.7 0
21.8 0
21.9 0
22 0
22.1 0
22.2 0
22.3 0
22.4 0
22.5 0
22.6 0
22.7 0
22.8 0
22.9 0
23 0
23.1 0
23.2 0
23.3 0
23.4 0
23.5 0
23.6 0
23.7 0
23.8 0
23.9 0
24 0
24.1 0
24.2 0
24.3 0
24.4 0
24.5 0
24.6 0
24.7 0
24.8 0
24.9 0
25 0
25.1 0
25.2 0
25.3 0
25.4 0
25.5 0
25.6 0
25.7 0
25.8 0
25.9 0
26 0
26.1 0
26.2 0
26.3 0
26.4 0
26.5 0
26.6 0
26.7 0
26.8 0
26.9 0
27 0
27.1 0
27.2 0
27.3 0
27.4 0
27.5 0
27.6 0
27.7 0
27.8 0
27.9 0
28 0
28.1 0
28.2 0
28.3 0
28.4 0
28.5 0
28.6 0
28.7 0
28.8 0
28.9 0
29 0
29.1 0
29.2 0
29.3 0
29.4 0
29.5 0
29.6 0
29.7 0
29.8 0
29.9 0
