# Light Curve Count Rate
# Time (sec) 	 Rate (c/s)
526.293 3.66668e+48
581.643 3.87469e+48
642.815 4.02573e+48
710.421 4.12256e+48
785.136 4.1653e+48
867.71 4.16015e+48
958.968 4.11072e+48
1059.82 4.02283e+48
1171.29 3.90374e+48
1294.47 3.75948e+48
1430.61 3.59663e+48
1581.07 3.42086e+48
1747.35 3.23723e+48
1931.12 3.04977e+48
2134.22 2.86201e+48
2358.68 2.6767e+48
2606.75 2.49549e+48
2880.9 2.32039e+48
3183.89 2.1523e+48
3518.74 1.99201e+48
3888.81 1.83833e+48
4297.8 1.69149e+48
4749.8 1.55395e+48
5249.34 1.42635e+48
5801.42 1.3091e+48
6411.56 1.20255e+48
7085.87 1.10656e+48
7831.09 1.0189e+48
8654.7 9.38644e+47
9564.92 8.65106e+47
10570.9 7.96771e+47
11682.6 7.3293e+47
12911.3 6.73244e+47
14269.2 6.17036e+47
15769.9 5.64081e+47
17428.4 5.14052e+47
19261.4 4.66983e+47
21287.1 4.22573e+47
23525.9 3.81018e+47
26000.2 3.4218e+47
28734.6 3.06089e+47
31756.7 2.72725e+47
35096.5 2.42043e+47
38787.7 2.13982e+47
42867 1.88476e+47
47375.4 1.6543e+47
52357.9 1.44731e+47
57864.4 1.26234e+47
63950.1 1.09786e+47
70675.7 9.52427e+46
78108.8 8.24441e+46
86323.5 7.12096e+46
95402.3 6.07638e+46
105436 5.14852e+46
116525 6.00346e+46
128780 5.72264e+46
142323 5.23109e+46
157292 4.67683e+46
173834 4.12524e+46
192117 3.60785e+46
212322 3.13853e+46
234652 2.84186e+46
259330 3.25514e+46
286604 2.69256e+46
316747 2.28908e+46
350059 1.95167e+46
386875 1.66741e+46
427563 1.42773e+46
472531 1.22288e+46
522227 1.04753e+46
577150 8.96647e+45
637849 7.70466e+45
704933 6.63316e+45
779071 5.72823e+45
861007 4.95722e+45
951560 4.30001e+45
1.05164e+06 3.74006e+45
1.16224e+06 3.25663e+45
1.28447e+06 2.84704e+45
1.41956e+06 2.48697e+45
1.56886e+06 2.18746e+45
1.73385e+06 1.91892e+45
1.91621e+06 1.69631e+45
2.11774e+06 1.49376e+45
2.34046e+06 1.32471e+45
2.58661e+06 1.17105e+45
2.85864e+06 1.04044e+45
3.15929e+06 9.23755e+44
3.49156e+06 8.20133e+44
3.85877e+06 7.32355e+44
4.26459e+06 6.4932e+44
4.71311e+06 0
