# Spectrum Count Rate
# Energy bin (keV) 	 Rate (c/s) 	 Uncertainty (c/s)
8.09546 3.40678e+47 0
8.28865 3.29809e+47 0
8.48645 3.1932e+47 0
8.68897 3.09199e+47 0
8.89632 2.99433e+47 0
9.10862 2.90009e+47 0
9.32599 2.80915e+47 0
9.54855 2.72139e+47 0
9.77641 2.6367e+47 0
10.0097 2.55496e+47 0
10.2486 2.47608e+47 0
10.4932 2.39994e+47 0
10.7436 2.32645e+47 0
11 2.25552e+47 0
11.2625 2.18704e+47 0
11.5312 2.12094e+47 0
11.8064 2.05712e+47 0
12.0882 1.99549e+47 0
12.3766 1.93599e+47 0
12.672 1.87853e+47 0
12.9744 1.82303e+47 0
13.284 1.76942e+47 0
13.601 1.71762e+47 0
13.9256 1.66758e+47 0
14.2579 1.61923e+47 0
14.5982 1.57249e+47 0
14.9465 1.52731e+47 0
15.3032 1.48363e+47 0
15.6684 1.44139e+47 0
16.0423 1.40054e+47 0
16.4252 1.36101e+47 0
16.8171 1.32277e+47 0
17.2185 1.28575e+47 0
17.6294 1.2499e+47 0
18.0501 1.21519e+47 0
18.4808 1.18157e+47 0
18.9218 1.14898e+47 0
19.3734 1.1174e+47 0
19.8357 1.08677e+47 0
20.3091 1.05706e+47 0
20.7937 1.02823e+47 0
21.2899 1.00025e+47 0
21.798 9.73073e+46 0
22.3182 9.46671e+46 0
22.8508 9.2101e+46 0
23.3961 8.96059e+46 0
23.9544 8.71787e+46 0
24.5261 8.48165e+46 0
25.1114 8.25165e+46 0
25.7106 8.0276e+46 0
26.3242 7.80925e+46 0
26.9524 7.59636e+46 0
27.5956 7.38867e+46 0
28.2541 7.18598e+46 0
28.9284 6.98807e+46 0
29.6187 6.79473e+46 0
30.3256 6.60577e+46 0
31.0492 6.42102e+46 0
31.7902 6.24029e+46 0
32.5488 6.06342e+46 0
33.3256 5.89026e+46 0
34.1209 5.72068e+46 0
34.9351 5.55452e+46 0
35.7688 5.39168e+46 0
36.6224 5.23203e+46 0
37.4964 5.07547e+46 0
38.3912 4.92189e+46 0
39.3073 4.77122e+46 0
40.2454 4.62336e+46 0
41.2058 4.47826e+46 0
42.1891 4.33584e+46 0
43.1959 4.19604e+46 0
44.2268 4.05883e+46 0
45.2822 3.92415e+46 0
46.3628 3.79198e+46 0
47.4692 3.66229e+46 0
48.602 3.53505e+46 0
49.7618 3.41025e+46 0
50.9494 3.28788e+46 0
52.1652 3.16794e+46 0
53.4101 3.05043e+46 0
54.6847 2.93536e+46 0
55.9897 2.82273e+46 0
57.3258 2.71255e+46 0
58.6938 2.60485e+46 0
60.0945 2.49964e+46 0
61.5286 2.39694e+46 0
62.9969 2.29678e+46 0
64.5003 2.19917e+46 0
66.0395 2.10413e+46 0
67.6155 2.01169e+46 0
69.229 1.92188e+46 0
70.8811 1.8347e+46 0
72.5726 1.75018e+46 0
74.3045 1.66832e+46 0
76.0777 1.58915e+46 0
77.8932 1.51267e+46 0
79.7521 1.43888e+46 0
81.6553 1.36778e+46 0
83.6039 1.29936e+46 0
85.599 1.23362e+46 0
87.6417 1.17054e+46 0
89.7332 1.1101e+46 0
91.8746 1.05226e+46 0
94.0671 9.97006e+45 0
96.3119 9.44287e+45 0
98.6103 8.9406e+45 0
100.964 8.46279e+45 0
103.373 8.00887e+45 0
105.84 7.57824e+45 0
108.366 7.17026e+45 0
110.952 6.78425e+45 0
113.599 6.41948e+45 0
116.31 6.07519e+45 0
119.086 5.7506e+45 0
121.928 5.4449e+45 0
124.838 5.15727e+45 0
127.817 4.88685e+45 0
130.867 4.63282e+45 0
133.99 4.39431e+45 0
137.187 4.1705e+45 0
140.461 3.96054e+45 0
143.813 3.76361e+45 0
147.245 3.57892e+45 0
150.759 3.40568e+45 0
154.357 3.24313e+45 0
158.04 3.09056e+45 0
161.812 2.94728e+45 0
165.673 2.81261e+45 0
169.627 2.68593e+45 0
173.675 2.56665e+45 0
177.819 2.45423e+45 0
182.063 2.34814e+45 0
186.408 2.2479e+45 0
190.856 2.15307e+45 0
195.411 2.06324e+45 0
200.074 1.97803e+45 0
204.849 1.8971e+45 0
209.737 1.82014e+45 0
214.742 1.74685e+45 0
219.867 1.67698e+45 0
225.114 1.6103e+45 0
230.486 1.54659e+45 0
235.986 1.48567e+45 0
241.618 1.42735e+45 0
247.384 1.37148e+45 0
253.287 1.31793e+45 0
259.332 1.26656e+45 0
265.52 1.21725e+45 0
271.857 1.16991e+45 0
278.344 1.12443e+45 0
284.987 1.08073e+45 0
291.788 1.03873e+45 0
298.751 9.9835e+44 0
305.88 9.5952e+44 0
313.18 9.22176e+44 0
320.654 8.86258e+44 0
328.306 8.51708e+44 0
336.14 8.18473e+44 0
344.162 7.865e+44 0
352.375 7.55742e+44 0
360.784 7.26152e+44 0
369.394 6.97685e+44 0
378.209 6.703e+44 0
387.235 6.43956e+44 0
396.476 6.18613e+44 0
405.937 5.94235e+44 0
415.625 5.70786e+44 0
425.543 5.4823e+44 0
435.698 5.26536e+44 0
446.096 5.0567e+44 0
456.741 4.85602e+44 0
467.641 4.66302e+44 0
478.801 4.47742e+44 0
490.227 4.29894e+44 0
501.926 4.12731e+44 0
513.904 3.96229e+44 0
526.167 3.80362e+44 0
538.724 3.65106e+44 0
551.58 3.5044e+44 0
564.743 3.3634e+44 0
578.22 3.22786e+44 0
592.019 3.09757e+44 0
606.146 2.97233e+44 0
620.611 2.85196e+44 0
635.422 2.73627e+44 0
650.586 2.62509e+44 0
666.111 2.51824e+44 0
682.007 2.41557e+44 0
698.282 2.31691e+44 0
714.946 2.22212e+44 0
732.008 2.13104e+44 0
749.476 2.04355e+44 0
767.362 1.95949e+44 0
785.674 1.87875e+44 0
804.424 1.8012e+44 0
823.62 1.72671e+44 0
843.275 1.65517e+44 0
863.399 1.58646e+44 0
884.003 1.52049e+44 0
905.099 1.45714e+44 0
926.698 1.39631e+44 0
948.813 1.33792e+44 0
971.456 1.28185e+44 0
994.639 1.22804e+44 0
1018.37 1.17638e+44 0
1042.68 1.1268e+44 0
1067.56 1.07921e+44 0
1093.04 1.03355e+44 0
1119.12 9.89727e+43 0
1145.83 9.47681e+43 0
1173.17 9.07341e+43 0
1201.17 8.68641e+43 0
1229.83 8.31516e+43 0
1259.18 7.95906e+43 0
1289.23 7.61752e+43 0
1320 7.28997e+43 0
1351.5 6.97587e+43 0
1383.75 6.67468e+43 0
1416.77 6.3859e+43 0
1450.58 6.10905e+43 0
1485.2 5.84366e+43 0
1520.64 5.58927e+43 0
1556.93 5.34546e+43 0
1594.08 5.11179e+43 0
1632.12 4.88788e+43 0
1671.07 4.67334e+43 0
1710.95 4.46779e+43 0
1751.78 4.27088e+43 0
1793.59 4.08225e+43 0
1836.39 3.90159e+43 0
1880.21 3.72857e+43 0
1925.08 3.56288e+43 0
1971.02 3.40424e+43 0
2018.06 3.25235e+43 0
2066.22 3.10694e+43 0
2115.52 2.96775e+43 0
2166.01 2.83454e+43 0
2217.7 2.70705e+43 0
2270.62 2.58505e+43 0
2324.81 2.46833e+43 0
2380.29 2.35665e+43 0
2437.09 2.24983e+43 0
2495.25 2.14764e+43 0
2554.8 2.04992e+43 0
2615.76 1.95647e+43 0
2678.19 1.86711e+43 0
2742.1 1.78167e+43 0
2807.54 1.7e+43 0
2874.54 1.62193e+43 0
2943.13 1.54731e+43 0
3013.37 1.476e+43 0
3085.28 1.40786e+43 0
3158.91 1.34276e+43 0
3234.29 1.28056e+43 0
3311.47 1.22115e+43 0
3390.5 1.1644e+43 0
3471.41 1.1102e+43 0
3554.25 1.05845e+43 0
3639.07 1.00903e+43 0
3725.91 9.61852e+42 0
3814.83 9.16813e+42 0
3905.86 8.73822e+42 0
3999.07 8.3279e+42 0
4094.51 7.93632e+42 0
4192.22 7.56267e+42 0
4292.26 7.20615e+42 0
4394.69 6.86602e+42 0
4499.57 6.54155e+42 0
4606.95 6.23205e+42 0
4716.89 5.93687e+42 0
4829.45 5.65536e+42 0
4944.7 5.38691e+42 0
5062.7 5.13095e+42 0
5183.52 4.88691e+42 0
5307.22 4.65426e+42 0
5433.87 4.43248e+42 0
5563.54 4.22109e+42 0
5696.31 4.01961e+42 0
5832.25 3.8276e+42 0
5971.43 3.64462e+42 0
6113.93 3.47026e+42 0
6259.83 3.30414e+42 0
6409.22 3.14586e+42 0
6562.17 2.99506e+42 0
6718.77 2.85142e+42 0
6879.1 2.71458e+42 0
7043.27 2.58425e+42 0
7211.35 2.46011e+42 0
7383.44 2.34188e+42 0
7559.64 2.22929e+42 0
7740.04 2.12206e+42 0
7924.75 2.01995e+42 0
8113.86 1.92273e+42 0
8307.49 1.83015e+42 0
8505.74 1.742e+42 0
8708.72 1.65808e+42 0
8916.55 1.57817e+42 0
9129.33 1.5021e+42 0
9347.2 1.42968e+42 0
9570.26 1.36074e+42 0
9798.64 1.29511e+42 0
10032.5 1.23263e+42 0
10271.9 1.17316e+42 0
10517 1.11656e+42 0
10768 1.06267e+42 0
11025 1.01138e+42 0
11288.1 9.62561e+41 0
11557.4 9.16094e+41 0
11833.3 8.71866e+41 0
12115.6 8.29771e+41 0
12404.8 7.89705e+41 0
12700.8 7.51571e+41 0
13003.9 7.15277e+41 0
13314.2 6.80734e+41 0
13631.9 6.47858e+41 0
13957.3 6.16568e+41 0
14290.3 5.86788e+41 0
14631.4 5.58446e+41 0
14980.5 5.31473e+41 0
15338 5.05801e+41 0
15704 4.81369e+41 0
16078.8 4.58117e+41 0
16462.5 4.35987e+41 0
16855.4 4.14926e+41 0
17257.6 3.94883e+41 0
17669.4 3.75807e+41 0
18091.1 3.57652e+41 0
18522.8 3.40375e+41 0
18964.9 3.23932e+41 0
19417.4 3.08283e+41 0
19880.8 2.9339e+41 0
20355.2 2.79216e+41 0
20841 2.65727e+41 0
21338.4 2.5289e+41 0
21847.6 2.40672e+41 0
22368.9 2.29045e+41 0
22902.8 2.17979e+41 0
23449.3 2.07448e+41 0
24008.9 1.97426e+41 0
24581.9 1.87888e+41 0
25168.5 1.78811e+41 0
25769.1 1.70172e+41 0
26384.1 1.6195e+41 0
27013.7 1.54126e+41 0
27658.3 1.46679e+41 0
28318.4 1.39593e+41 0
28994.2 1.32848e+41 0
29686.1 1.2643e+41 0
30394.5 1.20321e+41 0
31119.8 1.14508e+41 0
31862.5 1.08976e+41 0
32622.9 1.0371e+41 0
33401.4 9.86996e+40 0
34198.4 9.39309e+40 0
35014.6 8.93925e+40 0
35850.2 8.50734e+40 0
36705.7 8.0963e+40 0
37581.6 7.70512e+40 0
38478.5 7.33283e+40 0
39396.7 6.97853e+40 0
40336.9 6.64135e+40 0
41299.5 6.32046e+40 0
42285.1 6.01507e+40 0
43294.1 5.72444e+40 0
44327.3 5.44785e+40 0
45385.2 5.18462e+40 0
46468.2 4.93412e+40 0
47577.1 4.69571e+40 0
48712.5 4.46882e+40 0
49875 4.2529e+40 0
51065.2 4.0474e+40 0
52283.8 3.85184e+40 0
53531.5 3.66573e+40 0
54809 3.48861e+40 0
56117 3.32004e+40 0
57456.1 3.15962e+40 0
58827.3 3.00696e+40 0
60231.1 2.86166e+40 0
61668.5 2.72339e+40 0
63140.1 2.5918e+40 0
64646.9 2.46657e+40 0
66189.7 2.34738e+40 0
67769.2 2.23396e+40 0
69386.5 2.12602e+40 0
71042.3 2.02329e+40 0
72737.6 1.92553e+40 0
74473.4 1.83249e+40 0
76250.7 1.74395e+40 0
78070.3 1.65968e+40 0
79933.4 1.57949e+40 0
81840.9 1.50317e+40 0
83794 1.43053e+40 0
85793.6 1.36141e+40 0
87841 1.29563e+40 0
89937.3 1.23303e+40 0
92083.5 1.17345e+40 0
94281 1.11675e+40 0
96531 1.06279e+40 0
98834.5 1.01143e+40 0
