# Spectrum Count Rate
# Energy bin (keV) 	 Rate (c/s) 	 Uncertainty (c/s)
8.09546 7.41829e+47 0
8.28865 7.1601e+47 0
8.48645 6.91098e+47 0
8.68897 6.67061e+47 0
8.89632 6.43869e+47 0
9.10862 6.21493e+47 0
9.32599 5.99903e+47 0
9.54855 5.79074e+47 0
9.77641 5.58978e+47 0
10.0097 5.3959e+47 0
10.2486 5.20886e+47 0
10.4932 5.02841e+47 0
10.7436 4.85432e+47 0
11 4.68638e+47 0
11.2625 4.52436e+47 0
11.5312 4.36807e+47 0
11.8064 4.2173e+47 0
12.0882 4.07186e+47 0
12.3766 3.93155e+47 0
12.672 3.79621e+47 0
12.9744 3.66566e+47 0
13.284 3.53973e+47 0
13.601 3.41826e+47 0
13.9256 3.30108e+47 0
14.2579 3.18806e+47 0
14.5982 3.07904e+47 0
14.9465 2.97389e+47 0
15.3032 2.87246e+47 0
15.6684 2.77463e+47 0
16.0423 2.68026e+47 0
16.4252 2.58924e+47 0
16.8171 2.50145e+47 0
17.2185 2.41678e+47 0
17.6294 2.33511e+47 0
18.0501 2.25633e+47 0
18.4808 2.18035e+47 0
18.9218 2.10707e+47 0
19.3734 2.03638e+47 0
19.8357 1.9682e+47 0
20.3091 1.90244e+47 0
20.7937 1.83901e+47 0
21.2899 1.77783e+47 0
21.798 1.71882e+47 0
22.3182 1.66189e+47 0
22.8508 1.60699e+47 0
23.3961 1.55402e+47 0
23.9544 1.50293e+47 0
24.5261 1.45365e+47 0
25.1114 1.4061e+47 0
25.7106 1.36024e+47 0
26.3242 1.31599e+47 0
26.9524 1.2733e+47 0
27.5956 1.23211e+47 0
28.2541 1.19237e+47 0
28.9284 1.15403e+47 0
29.6187 1.11703e+47 0
30.3256 1.08132e+47 0
31.0492 1.04687e+47 0
31.7902 1.01361e+47 0
32.5488 9.81511e+46 0
33.3256 9.50527e+46 0
34.1209 9.20616e+46 0
34.9351 8.9174e+46 0
35.7688 8.63858e+46 0
36.6224 8.36935e+46 0
37.4964 8.10934e+46 0
38.3912 7.8582e+46 0
39.3073 7.61561e+46 0
40.2454 7.38124e+46 0
41.2058 7.15478e+46 0
42.1891 6.93592e+46 0
43.1959 6.72439e+46 0
44.2268 6.51989e+46 0
45.2822 6.32216e+46 0
46.3628 6.13094e+46 0
47.4692 5.94598e+46 0
48.602 5.76703e+46 0
49.7618 5.59386e+46 0
50.9494 5.42625e+46 0
52.1652 5.26397e+46 0
53.4101 5.10682e+46 0
54.6847 4.95461e+46 0
55.9897 4.80712e+46 0
57.3258 4.66417e+46 0
58.6938 4.5256e+46 0
60.0945 4.39121e+46 0
61.5286 4.26085e+46 0
62.9969 4.13436e+46 0
64.5003 4.01158e+46 0
66.0395 3.89236e+46 0
67.6155 3.77657e+46 0
69.229 3.66406e+46 0
70.8811 3.55471e+46 0
72.5726 3.4484e+46 0
74.3045 3.34499e+46 0
76.0777 3.24439e+46 0
77.8932 3.14648e+46 0
79.7521 3.05116e+46 0
81.6553 2.95833e+46 0
83.6039 2.8679e+46 0
85.599 2.77978e+46 0
87.6417 2.69388e+46 0
89.7332 2.61013e+46 0
91.8746 2.52845e+46 0
94.0671 2.44877e+46 0
96.3119 2.37102e+46 0
98.6103 2.29514e+46 0
100.964 2.22108e+46 0
103.373 2.14878e+46 0
105.84 2.07818e+46 0
108.366 2.00924e+46 0
110.952 1.94192e+46 0
113.599 1.87618e+46 0
116.31 1.81197e+46 0
119.086 1.74927e+46 0
121.928 1.68805e+46 0
124.838 1.62827e+46 0
127.817 1.5699e+46 0
130.867 1.51294e+46 0
133.99 1.45735e+46 0
137.187 1.40312e+46 0
140.461 1.35022e+46 0
143.813 1.29865e+46 0
147.245 1.24839e+46 0
150.759 1.19943e+46 0
154.357 1.15175e+46 0
158.04 1.10535e+46 0
161.812 1.06021e+46 0
165.673 1.01633e+46 0
169.627 9.73704e+45 0
173.675 9.32316e+45 0
177.819 8.92161e+45 0
182.063 8.5323e+45 0
186.408 8.15517e+45 0
190.856 7.7901e+45 0
195.411 7.43702e+45 0
200.074 7.09583e+45 0
204.849 6.76642e+45 0
209.737 6.44866e+45 0
214.742 6.14245e+45 0
219.867 5.84764e+45 0
225.114 5.56408e+45 0
230.486 5.29162e+45 0
235.986 5.03008e+45 0
241.618 4.77929e+45 0
247.384 4.53904e+45 0
253.287 4.30914e+45 0
259.332 4.08936e+45 0
265.52 3.87947e+45 0
271.857 3.67923e+45 0
278.344 3.48838e+45 0
284.987 3.30668e+45 0
291.788 3.13385e+45 0
298.751 2.9696e+45 0
305.88 2.81366e+45 0
313.18 2.66574e+45 0
320.654 2.52555e+45 0
328.306 2.39278e+45 0
336.14 2.26713e+45 0
344.162 2.14831e+45 0
352.375 2.03602e+45 0
360.784 1.92996e+45 0
369.394 1.82983e+45 0
378.209 1.73533e+45 0
387.235 1.6462e+45 0
396.476 1.56213e+45 0
405.937 1.48286e+45 0
415.625 1.40812e+45 0
425.543 1.33766e+45 0
435.698 1.27121e+45 0
446.096 1.20855e+45 0
456.741 1.14944e+45 0
467.641 1.09366e+45 0
478.801 1.041e+45 0
490.227 9.91259e+44 0
501.926 9.44258e+44 0
513.904 8.99813e+44 0
526.167 8.57759e+44 0
538.724 8.1794e+44 0
551.58 7.80209e+44 0
564.743 7.4443e+44 0
578.22 7.10477e+44 0
592.019 6.78232e+44 0
606.146 6.47587e+44 0
620.611 6.18441e+44 0
635.422 5.90701e+44 0
650.586 5.64282e+44 0
666.111 5.39105e+44 0
682.007 5.15097e+44 0
698.282 4.92192e+44 0
714.946 4.70328e+44 0
732.008 4.4945e+44 0
749.476 4.29503e+44 0
767.362 4.10441e+44 0
785.674 3.92219e+44 0
804.424 3.74795e+44 0
823.62 3.58131e+44 0
843.275 3.42191e+44 0
863.399 3.26941e+44 0
884.003 3.12352e+44 0
905.099 2.98392e+44 0
926.698 2.85035e+44 0
948.813 2.72254e+44 0
971.456 2.60024e+44 0
994.639 2.48322e+44 0
1018.37 2.37127e+44 0
1042.68 2.26416e+44 0
1067.56 2.16169e+44 0
1093.04 2.06367e+44 0
1119.12 1.96992e+44 0
1145.83 1.88026e+44 0
1173.17 1.79451e+44 0
1201.17 1.71252e+44 0
1229.83 1.63413e+44 0
1259.18 1.55918e+44 0
1289.23 1.48755e+44 0
1320 1.41908e+44 0
1351.5 1.35365e+44 0
1383.75 1.29112e+44 0
1416.77 1.23138e+44 0
1450.58 1.1743e+44 0
1485.2 1.11979e+44 0
1520.64 1.06771e+44 0
1556.93 1.01798e+44 0
1594.08 9.70492e+43 0
1632.12 9.25149e+43 0
1671.07 8.81859e+43 0
1710.95 8.40535e+43 0
1751.78 8.01091e+43 0
1793.59 7.63446e+43 0
1836.39 7.27521e+43 0
1880.21 6.93242e+43 0
1925.08 6.60535e+43 0
1971.02 6.29334e+43 0
2018.06 5.99571e+43 0
2066.22 5.71182e+43 0
2115.52 5.44107e+43 0
2166.01 5.18288e+43 0
2217.7 4.93668e+43 0
2270.62 4.70194e+43 0
2324.81 4.47814e+43 0
2380.29 4.2648e+43 0
2437.09 4.06144e+43 0
2495.25 3.86761e+43 0
2554.8 3.68288e+43 0
2615.76 3.50684e+43 0
2678.19 3.33909e+43 0
2742.1 3.17925e+43 0
2807.54 3.02696e+43 0
2874.54 2.88187e+43 0
2943.13 2.74365e+43 0
3013.37 2.61199e+43 0
3085.28 2.48658e+43 0
3158.91 2.36712e+43 0
3234.29 2.25336e+43 0
3311.47 2.14501e+43 0
3390.5 2.04183e+43 0
3471.41 1.94357e+43 0
3554.25 1.85001e+43 0
3639.07 1.76092e+43 0
3725.91 1.67609e+43 0
3814.83 1.59533e+43 0
3905.86 1.51844e+43 0
3999.07 1.44523e+43 0
4094.51 1.37554e+43 0
4192.22 1.3092e+43 0
4292.26 1.24604e+43 0
4394.69 1.18592e+43 0
4499.57 1.12869e+43 0
4606.95 1.07421e+43 0
4716.89 1.02236e+43 0
4829.45 9.73004e+42 0
4944.7 9.26025e+42 0
5062.7 8.81311e+42 0
5183.52 8.38752e+42 0
5307.22 7.98245e+42 0
5433.87 7.59692e+42 0
5563.54 7.22998e+42 0
5696.31 6.88075e+42 0
5832.25 6.54837e+42 0
5971.43 6.23204e+42 0
6113.93 5.93097e+42 0
6259.83 5.64444e+42 0
6409.22 5.37175e+42 0
6562.17 5.11222e+42 0
6718.77 4.86523e+42 0
6879.1 4.63017e+42 0
7043.27 4.40646e+42 0
7211.35 4.19355e+42 0
7383.44 3.99093e+42 0
7559.64 3.7981e+42 0
7740.04 3.61459e+42 0
7924.75 3.43994e+42 0
8113.86 3.27372e+42 0
8307.49 3.11554e+42 0
8505.74 2.965e+42 0
8708.72 2.82174e+42 0
8916.55 2.6854e+42 0
9129.33 2.55564e+42 0
9347.2 2.43215e+42 0
9570.26 2.31463e+42 0
9798.64 2.20279e+42 0
10032.5 2.09635e+42 0
10271.9 1.99506e+42 0
10517 1.89866e+42 0
10768 1.80692e+42 0
11025 1.71961e+42 0
11288.1 1.63652e+42 0
11557.4 1.55744e+42 0
11833.3 1.48219e+42 0
12115.6 1.41057e+42 0
12404.8 1.34241e+42 0
12700.8 1.27755e+42 0
13003.9 1.21582e+42 0
13314.2 1.15707e+42 0
13631.9 1.10116e+42 0
13957.3 1.04795e+42 0
14290.3 9.97317e+41 0
14631.4 9.49127e+41 0
14980.5 9.03266e+41 0
15338 8.59621e+41 0
15704 8.18085e+41 0
16078.8 7.78555e+41 0
16462.5 7.40936e+41 0
16855.4 7.05135e+41 0
17257.6 6.71063e+41 0
17669.4 6.38638e+41 0
18091.1 6.07779e+41 0
18522.8 5.78412e+41 0
18964.9 5.50463e+41 0
19417.4 5.23865e+41 0
19880.8 4.98552e+41 0
20355.2 4.74462e+41 0
20841 4.51537e+41 0
21338.4 4.29719e+41 0
21847.6 4.08955e+41 0
22368.9 3.89194e+41 0
22902.8 3.70389e+41 0
23449.3 3.52492e+41 0
24008.9 3.3546e+41 0
24581.9 3.1925e+41 0
25168.5 3.03825e+41 0
25769.1 2.89144e+41 0
26384.1 2.75172e+41 0
27013.7 2.61876e+41 0
27658.3 2.49223e+41 0
28318.4 2.37181e+41 0
28994.2 2.2572e+41 0
29686.1 2.14813e+41 0
30394.5 2.04434e+41 0
31119.8 1.94556e+41 0
31862.5 1.85155e+41 0
32622.9 1.76208e+41 0
33401.4 1.67694e+41 0
34198.4 1.59591e+41 0
35014.6 1.5188e+41 0
35850.2 1.44541e+41 0
36705.7 1.37557e+41 0
37581.6 1.3091e+41 0
38478.5 1.24585e+41 0
39396.7 1.18565e+41 0
40336.9 1.12836e+41 0
41299.5 1.07384e+41 0
42285.1 1.02195e+41 0
43294.1 9.7257e+40 0
44327.3 9.25576e+40 0
45385.2 8.80852e+40 0
46468.2 8.38291e+40 0
47577.1 7.97785e+40 0
48712.5 7.59236e+40 0
49875 7.22551e+40 0
51065.2 6.87637e+40 0
52283.8 6.54411e+40 0
53531.5 6.2279e+40 0
54809 5.92698e+40 0
56117 5.64059e+40 0
57456.1 5.36804e+40 0
58827.3 5.10866e+40 0
60231.1 4.86181e+40 0
61668.5 4.62689e+40 0
63140.1 4.40332e+40 0
64646.9 4.19056e+40 0
66189.7 3.98807e+40 0
67769.2 3.79537e+40 0
69386.5 3.61198e+40 0
71042.3 3.43745e+40 0
72737.6 3.27136e+40 0
74473.4 3.11329e+40 0
76250.7 2.96286e+40 0
78070.3 2.81969e+40 0
79933.4 2.68345e+40 0
81840.9 2.55378e+40 0
83794 2.43039e+40 0
85793.6 2.31295e+40 0
87841 2.20119e+40 0
89937.3 2.09483e+40 0
92083.5 1.99361e+40 0
94281 1.89728e+40 0
96531 1.8056e+40 0
98834.5 1.71836e+40 0
